lr-AdamW,step,train/loss,epoch,val/loss,val/CER,val/IER,val/DER,val/SER,train/CER,train/IER,train/DER,train/SER
0.001,9,,,,,,,,,,,
,9,11.412259101867676,0,,,,,,,,,
0.001,19,,,,,,,,,,,
,19,19.156490325927734,0,,,,,,,,,
0.001,29,,,,,,,,,,,
,29,6.435214996337891,0,,,,,,,,,
0.001,39,,,,,,,,,,,
,39,4.634836196899414,0,,,,,,,,,
0.001,49,,,,,,,,,,,
,49,3.555223226547241,0,,,,,,,,,
0.001,59,,,,,,,,,,,
,59,3.4367120265960693,0,,,,,,,,,
,59,,0,3.5981624126434326,100.0,100.0,0.0,0.0,,,,
0.001,69,,,,,,,,,,,
,69,2.904085159301758,0,,,,,,,,,
0.001,79,,,,,,,,,,,
,79,2.6784729957580566,0,,,,,,,,,
0.001,89,,,,,,,,,,,
,89,2.4885294437408447,0,,,,,,,,,
0.001,99,,,,,,,,,,,
,99,2.6741859912872314,0,,,,,,,,,
0.001,109,,,,,,,,,,,
,109,2.72278094291687,0,,,,,,,,,
0.001,119,,,,,,,,,,,
,119,2.2587716579437256,0,,,,,,,,,
,119,,0,2.036374568939209,70.42534637451172,59.680992126464844,0.11076650768518448,10.633584022521973,,,,
,119,,0,,,,,,96.21375274658203,71.20172882080078,7.993180751800537,17.018848419189453
0.001,129,,,,,,,,,,,
,129,2.0369372367858887,1,,,,,,,,,
0.001,139,,,,,,,,,,,
,139,1.8566052913665771,1,,,,,,,,,
0.001,149,,,,,,,,,,,
,149,1.719604730606079,1,,,,,,,,,
0.001,159,,,,,,,,,,,
,159,1.6819748878479004,1,,,,,,,,,
0.001,169,,,,,,,,,,,
,169,1.5367183685302734,1,,,,,,,,,
0.001,179,,,,,,,,,,,
,179,1.4980565309524536,1,,,,,,,,,
,179,,1,1.1792752742767334,37.48338317871094,14.133806228637695,2.326096534729004,21.023483276367188,,,,
0.001,189,,,,,,,,,,,
,189,1.5127211809158325,1,,,,,,,,,
0.001,199,,,,,,,,,,,
,199,1.5160784721374512,1,,,,,,,,,
0.001,209,,,,,,,,,,,
,209,1.6836798191070557,1,,,,,,,,,
0.001,219,,,,,,,,,,,
,219,1.3939614295959473,1,,,,,,,,,
0.001,229,,,,,,,,,,,
,229,1.3723866939544678,1,,,,,,,,,
0.001,239,,,,,,,,,,,
,239,1.4177393913269043,1,,,,,,,,,
,239,,1,1.0646721124649048,33.58440399169922,12.073549270629883,2.303943395614624,19.206911087036133,,,,
,239,,1,,,,,,49.56819152832031,22.00286865234375,2.8143365383148193,24.750986099243164
0.001,249,,,,,,,,,,,
,249,1.301662802696228,2,,,,,,,,,
0.001,259,,,,,,,,,,,
,259,1.3863247632980347,2,,,,,,,,,
0.001,269,,,,,,,,,,,
,269,1.2168632745742798,2,,,,,,,,,
0.001,279,,,,,,,,,,,
,279,1.32981276512146,2,,,,,,,,,
0.001,289,,,,,,,,,,,
,289,1.2553194761276245,2,,,,,,,,,
0.001,299,,,,,,,,,,,
,299,1.3299037218093872,2,,,,,,,,,
,299,,2,1.0552067756652832,34.47053527832031,11.187417030334473,2.702702760696411,20.580415725708008,,,,
0.001,309,,,,,,,,,,,
,309,1.305168628692627,2,,,,,,,,,
0.001,319,,,,,,,,,,,
,319,1.3491297960281372,2,,,,,,,,,
0.001,329,,,,,,,,,,,
,329,1.3174548149108887,2,,,,,,,,,
0.001,339,,,,,,,,,,,
,339,1.2776710987091064,2,,,,,,,,,
0.001,349,,,,,,,,,,,
,349,1.2375990152359009,2,,,,,,,,,
0.001,359,,,,,,,,,,,
,359,1.1202548742294312,2,,,,,,,,,
,359,,2,1.0389283895492554,34.00531768798828,12.893220901489258,1.9051839113235474,19.206911087036133,,,,
,359,,2,,,,,,40.742733001708984,14.59402084350586,3.1910200119018555,22.957691192626953
0.001,369,,,,,,,,,,,
,369,1.1179933547973633,3,,,,,,,,,
0.001,379,,,,,,,,,,,
,379,1.2144577503204346,3,,,,,,,,,
0.001,389,,,,,,,,,,,
,389,1.2505742311477661,3,,,,,,,,,
0.001,399,,,,,,,,,,,
,399,1.309736728668213,3,,,,,,,,,
0.001,409,,,,,,,,,,,
,409,1.257863163948059,3,,,,,,,,,
0.001,419,,,,,,,,,,,
,419,1.349863052368164,3,,,,,,,,,
,419,,3,0.9943667650222778,31.302614212036133,8.285334587097168,2.9463889598846436,20.070890426635742,,,,
0.001,429,,,,,,,,,,,
,429,1.123672604560852,3,,,,,,,,,
0.001,439,,,,,,,,,,,
,439,1.2627389430999756,3,,,,,,,,,
0.001,449,,,,,,,,,,,
,449,1.2609119415283203,3,,,,,,,,,
0.001,459,,,,,,,,,,,
,459,1.3875956535339355,3,,,,,,,,,
0.001,469,,,,,,,,,,,
,469,1.184450387954712,3,,,,,,,,,
0.001,479,,,,,,,,,,,
,479,1.0865622758865356,3,,,,,,,,,
,479,,3,0.9345940351486206,29.441736221313477,8.617633819580078,2.4368631839752197,18.387239456176758,,,,
,479,,3,,,,,,38.492244720458984,12.953710556030273,3.282817840576172,22.25571632385254
0.001,489,,,,,,,,,,,
,489,1.119424819946289,4,,,,,,,,,
0.001,499,,,,,,,,,,,
,499,1.1018590927124023,4,,,,,,,,,
0.001,509,,,,,,,,,,,
,509,1.1300729513168335,4,,,,,,,,,
0.001,519,,,,,,,,,,,
,519,1.0378156900405884,4,,,,,,,,,
0.001,529,,,,,,,,,,,
,529,1.2847316265106201,4,,,,,,,,,
0.001,539,,,,,,,,,,,
,539,1.2361083030700684,4,,,,,,,,,
,539,,4,0.9670690894126892,30.549402236938477,7.975188255310059,2.9906957149505615,19.58351707458496,,,,
0.001,549,,,,,,,,,,,
,549,1.0520503520965576,4,,,,,,,,,
0.001,559,,,,,,,,,,,
,559,1.0678373575210571,4,,,,,,,,,
0.001,569,,,,,,,,,,,
,569,1.156717300415039,4,,,,,,,,,
0.001,579,,,,,,,,,,,
,579,1.1583143472671509,4,,,,,,,,,
0.001,589,,,,,,,,,,,
,589,1.21632981300354,4,,,,,,,,,
0.001,599,,,,,,,,,,,
,599,1.1348506212234497,4,,,,,,,,,
,599,,4,0.9885514974594116,33.96100997924805,14.86486530303955,1.6614975929260254,17.434648513793945,,,,
,599,,4,,,,,,36.93828582763672,12.125295639038086,3.337275266647339,21.47571563720703
0.001,609,,,,,,,,,,,
,609,1.2243973016738892,5,,,,,,,,,
0.001,619,,,,,,,,,,,
,619,1.191074013710022,5,,,,,,,,,
0.001,629,,,,,,,,,,,
,629,1.0883241891860962,5,,,,,,,,,
0.001,639,,,,,,,,,,,
,639,0.9866098761558533,5,,,,,,,,,
0.001,649,,,,,,,,,,,
,649,1.1556288003921509,5,,,,,,,,,
0.001,659,,,,,,,,,,,
,659,1.2117136716842651,5,,,,,,,,,
,659,,5,0.9229639768600464,29.79619026184082,10.544971466064453,1.9937970638275146,17.257421493530273,,,,
0.001,669,,,,,,,,,,,
,669,1.2773463726043701,5,,,,,,,,,
0.001,679,,,,,,,,,,,
,679,1.0828291177749634,5,,,,,,,,,
0.001,689,,,,,,,,,,,
,689,1.2110779285430908,5,,,,,,,,,
0.001,699,,,,,,,,,,,
,699,1.4436134099960327,5,,,,,,,,,
0.001,709,,,,,,,,,,,
,709,1.1125617027282715,5,,,,,,,,,
0.001,719,,,,,,,,,,,
,719,1.2882455587387085,5,,,,,,,,,
,719,,5,0.9413262009620667,30.615861892700195,8.639787673950195,2.4811697006225586,19.494905471801758,,,,
,719,,5,,,,,,37.33175277709961,12.604185104370117,3.4840948581695557,21.243473052978516
0.001,729,,,,,,,,,,,
,729,1.1890060901641846,6,,,,,,,,,
0.001,739,,,,,,,,,,,
,739,1.1612012386322021,6,,,,,,,,,
0.001,749,,,,,,,,,,,
,749,1.1615148782730103,6,,,,,,,,,
0.001,759,,,,,,,,,,,
,759,1.156601071357727,6,,,,,,,,,
0.001,769,,,,,,,,,,,
,769,1.2823115587234497,6,,,,,,,,,
0.001,779,,,,,,,,,,,
,779,1.0643099546432495,6,,,,,,,,,
,779,,6,0.9070950746536255,28.466991424560547,7.5985822677612305,2.5033230781555176,18.36508560180664,,,,
0.001,789,,,,,,,,,,,
,789,1.0879641771316528,6,,,,,,,,,
0.001,799,,,,,,,,,,,
,799,1.069561243057251,6,,,,,,,,,
0.001,809,,,,,,,,,,,
,809,0.9130794405937195,6,,,,,,,,,
0.001,819,,,,,,,,,,,
,819,1.0432711839675903,6,,,,,,,,,
0.001,829,,,,,,,,,,,
,829,1.3551801443099976,6,,,,,,,,,
0.001,839,,,,,,,,,,,
,839,1.1785647869110107,6,,,,,,,,,
,839,,6,0.9769667983055115,30.77093505859375,7.421355724334717,3.5002214908599854,19.84935760498047,,,,
,839,,6,,,,,,35.726200103759766,11.64592170715332,3.3246495723724365,20.755626678466797
0.001,849,,,,,,,,,,,
,849,1.0520528554916382,7,,,,,,,,,
0.001,859,,,,,,,,,,,
,859,1.0780425071716309,7,,,,,,,,,
0.001,869,,,,,,,,,,,
,869,1.1958860158920288,7,,,,,,,,,
0.001,879,,,,,,,,,,,
,879,1.1607393026351929,7,,,,,,,,,
0.001,889,,,,,,,,,,,
,889,0.9485675692558289,7,,,,,,,,,
0.001,899,,,,,,,,,,,
,899,1.0689470767974854,7,,,,,,,,,
,899,,7,0.9094008803367615,27.846698760986328,6.047851085662842,3.5223748683929443,18.276473999023438,,,,
0.001,909,,,,,,,,,,,
,909,1.1076589822769165,7,,,,,,,,,
0.001,919,,,,,,,,,,,
,919,1.1328617334365845,7,,,,,,,,,
0.001,929,,,,,,,,,,,
,929,1.1575051546096802,7,,,,,,,,,
0.001,939,,,,,,,,,,,
,939,1.0714740753173828,7,,,,,,,,,
0.001,949,,,,,,,,,,,
,949,1.0913572311401367,7,,,,,,,,,
0.001,959,,,,,,,,,,,
,959,1.0317163467407227,7,,,,,,,,,
,959,,7,0.9111005067825317,27.66947364807129,5.693398475646973,3.9211342334747314,18.05493927001953,,,,
,959,,7,,,,,,34.90941619873047,10.863125801086426,3.3064682483673096,20.739822387695312
0.001,969,,,,,,,,,,,
,969,1.0667204856872559,8,,,,,,,,,
0.001,979,,,,,,,,,,,
,979,1.1014370918273926,8,,,,,,,,,
0.001,989,,,,,,,,,,,
,989,1.0259170532226562,8,,,,,,,,,
0.001,999,,,,,,,,,,,
,999,1.1286593675613403,8,,,,,,,,,
0.001,1009,,,,,,,,,,,
,1009,1.033037543296814,8,,,,,,,,,
0.001,1019,,,,,,,,,,,
,1019,1.015541911125183,8,,,,,,,,,
,1019,,8,0.8550807237625122,27.514400482177734,8.55117416381836,2.5697829723358154,16.393442153930664,,,,
0.001,1029,,,,,,,,,,,
,1029,0.8373267650604248,8,,,,,,,,,
0.001,1039,,,,,,,,,,,
,1039,1.001751184463501,8,,,,,,,,,
0.001,1049,,,,,,,,,,,
,1049,1.1213345527648926,8,,,,,,,,,
0.001,1059,,,,,,,,,,,
,1059,1.0224473476409912,8,,,,,,,,,
0.001,1069,,,,,,,,,,,
,1069,1.0906182527542114,8,,,,,,,,,
0.001,1079,,,,,,,,,,,
,1079,0.9672604203224182,8,,,,,,,,,
,1079,,8,0.8373439908027649,27.093486785888672,7.177669525146484,2.4811697006225586,17.434648513793945,,,,
,1079,,8,,,,,,33.32875061035156,9.928356170654297,3.382791757583618,20.017601013183594
0.001,1089,,,,,,,,,,,
,1089,1.0879873037338257,9,,,,,,,,,
0.001,1099,,,,,,,,,,,
,1099,1.1665918827056885,9,,,,,,,,,
0.001,1109,,,,,,,,,,,
,1109,1.0774171352386475,9,,,,,,,,,
0.001,1119,,,,,,,,,,,
,1119,0.9835910201072693,9,,,,,,,,,
0.001,1129,,,,,,,,,,,
,1129,0.9689966440200806,9,,,,,,,,,
0.001,1139,,,,,,,,,,,
,1139,1.0326588153839111,9,,,,,,,,,
,1139,,9,0.8750646114349365,27.4257869720459,7.000442981719971,2.813469171524048,17.611873626708984,,,,
0.001,1149,,,,,,,,,,,
,1149,0.9779441952705383,9,,,,,,,,,
0.001,1159,,,,,,,,,,,
,1159,0.9563806056976318,9,,,,,,,,,
0.001,1169,,,,,,,,,,,
,1169,0.951374351978302,9,,,,,,,,,
0.001,1179,,,,,,,,,,,
,1179,1.0450588464736938,9,,,,,,,,,
0.001,1189,,,,,,,,,,,
,1189,1.02644944190979,9,,,,,,,,,
0.001,1199,,,,,,,,,,,
,1199,0.9821282029151917,9,,,,,,,,,
,1199,,9,0.8261500597000122,26.074434280395508,6.114311218261719,3.3451483249664307,16.614974975585938,,,,
,1199,,9,,,,,,33.431461334228516,9.883203506469727,3.486095428466797,20.062164306640625
0.001,1209,,,,,,,,,,,
,1209,1.157334566116333,10,,,,,,,,,
0.001,1219,,,,,,,,,,,
,1219,1.0044834613800049,10,,,,,,,,,
0.001,1229,,,,,,,,,,,
,1229,1.0504186153411865,10,,,,,,,,,
0.001,1239,,,,,,,,,,,
,1239,1.0029723644256592,10,,,,,,,,,
0.001,1249,,,,,,,,,,,
,1249,1.2525031566619873,10,,,,,,,,,
0.001,1259,,,,,,,,,,,
,1259,1.0344386100769043,10,,,,,,,,,
,1259,,10,0.854494035243988,26.340274810791016,6.734603404998779,2.9906957149505615,16.614974975585938,,,,
0.001,1269,,,,,,,,,,,
,1269,1.163074254989624,10,,,,,,,,,
0.001,1279,,,,,,,,,,,
,1279,1.01710844039917,10,,,,,,,,,
0.001,1289,,,,,,,,,,,
,1289,0.865768551826477,10,,,,,,,,,
0.001,1299,,,,,,,,,,,
,1299,0.9429477453231812,10,,,,,,,,,
0.001,1309,,,,,,,,,,,
,1309,0.8981105089187622,10,,,,,,,,,
0.001,1319,,,,,,,,,,,
,1319,0.9151617884635925,10,,,,,,,,,
,1319,,10,0.8362504243850708,27.691625595092773,9.76960563659668,1.7501107454299927,16.17190933227539,,,,
,1319,,10,,,,,,32.62766647338867,9.684789657592773,3.3475568294525146,19.595319747924805
0.001,1329,,,,,,,,,,,
,1329,0.9613576531410217,11,,,,,,,,,
0.001,1339,,,,,,,,,,,
,1339,0.9126176238059998,11,,,,,,,,,
0.001,1349,,,,,,,,,,,
,1349,0.9755668044090271,11,,,,,,,,,
0.001,1359,,,,,,,,,,,
,1359,1.1408771276474,11,,,,,,,,,
0.001,1369,,,,,,,,,,,
,1369,1.015474796295166,11,,,,,,,,,
0.001,1379,,,,,,,,,,,
,1379,1.0777267217636108,11,,,,,,,,,
,1379,,11,0.8844622373580933,27.071332931518555,6.734603404998779,2.769162654876709,17.567567825317383,,,,
0.001,1389,,,,,,,,,,,
,1389,1.0505852699279785,11,,,,,,,,,
0.001,1399,,,,,,,,,,,
,1399,0.9558151364326477,11,,,,,,,,,
0.001,1409,,,,,,,,,,,
,1409,1.129387617111206,11,,,,,,,,,
0.001,1419,,,,,,,,,,,
,1419,1.065494418144226,11,,,,,,,,,
0.001,1429,,,,,,,,,,,
,1429,1.0336607694625854,11,,,,,,,,,
0.001,1439,,,,,,,,,,,
,1439,1.062005639076233,11,,,,,,,,,
,1439,,11,0.8459284901618958,26.716880798339844,8.396100997924805,2.4368631839752197,15.883916854858398,,,,
,1439,,11,,,,,,32.83912658691406,10.144548416137695,3.3310868740081787,19.363489151000977
0.001,1449,,,,,,,,,,,
,1449,1.0822219848632812,12,,,,,,,,,
0.001,1459,,,,,,,,,,,
,1459,1.0460158586502075,12,,,,,,,,,
0.001,1469,,,,,,,,,,,
,1469,1.01784348487854,12,,,,,,,,,
0.001,1479,,,,,,,,,,,
,1479,1.0666176080703735,12,,,,,,,,,
0.001,1489,,,,,,,,,,,
,1489,0.9884141087532043,12,,,,,,,,,
0.001,1499,,,,,,,,,,,
,1499,0.8583545684814453,12,,,,,,,,,
,1499,,12,0.797309935092926,25.498449325561523,6.291537284851074,2.857775926589966,16.349136352539062,,,,
0.001,1509,,,,,,,,,,,
,1509,0.8727261424064636,12,,,,,,,,,
0.001,1519,,,,,,,,,,,
,1519,0.9454764723777771,12,,,,,,,,,
0.001,1529,,,,,,,,,,,
,1529,0.8974066376686096,12,,,,,,,,,
0.001,1539,,,,,,,,,,,
,1539,1.0506874322891235,12,,,,,,,,,
0.001,1549,,,,,,,,,,,
,1549,0.9290364980697632,12,,,,,,,,,
0.001,1559,,,,,,,,,,,
,1559,0.9037648439407349,12,,,,,,,,,
,1559,,12,0.8168249130249023,26.229507446289062,8.21887493133545,2.1267168521881104,15.883916854858398,,,,
,1559,,12,,,,,,31.834819793701172,9.14795207977295,3.371312141418457,19.315555572509766
0.001,1569,,,,,,,,,,,
,1569,0.8163641691207886,13,,,,,,,,,
0.001,1579,,,,,,,,,,,
,1579,0.9383796453475952,13,,,,,,,,,
0.001,1589,,,,,,,,,,,
,1589,1.0295000076293945,13,,,,,,,,,
0.001,1599,,,,,,,,,,,
,1599,0.9112037420272827,13,,,,,,,,,
0.001,1609,,,,,,,,,,,
,1609,0.9378334283828735,13,,,,,,,,,
0.001,1619,,,,,,,,,,,
,1619,1.0280832052230835,13,,,,,,,,,
,1619,,13,0.8709473609924316,27.292865753173828,8.373948097229004,2.5033230781555176,16.41559600830078,,,,
0.001,1629,,,,,,,,,,,
,1629,1.0412237644195557,13,,,,,,,,,
0.001,1639,,,,,,,,,,,
,1639,1.1250231266021729,13,,,,,,,,,
0.001,1649,,,,,,,,,,,
,1649,0.9300966858863831,13,,,,,,,,,
0.001,1659,,,,,,,,,,,
,1659,0.9432791471481323,13,,,,,,,,,
0.001,1669,,,,,,,,,,,
,1669,1.0557584762573242,13,,,,,,,,,
0.001,1679,,,,,,,,,,,
,1679,1.1309254169464111,13,,,,,,,,,
,1679,,13,0.823381245136261,26.295969009399414,7.465662479400635,2.5254762172698975,16.304828643798828,,,,
,1679,,13,,,,,,31.754159927368164,9.476415634155273,3.35648775100708,18.92125701904297
0.001,1689,,,,,,,,,,,
,1689,0.9269731640815735,14,,,,,,,,,
0.001,1699,,,,,,,,,,,
,1699,1.0657397508621216,14,,,,,,,,,
0.001,1709,,,,,,,,,,,
,1709,0.922833263874054,14,,,,,,,,,
0.001,1719,,,,,,,,,,,
,1719,1.0309431552886963,14,,,,,,,,,
0.001,1729,,,,,,,,,,,
,1729,0.963070809841156,14,,,,,,,,,
0.001,1739,,,,,,,,,,,
,1739,0.996853768825531,14,,,,,,,,,
,1739,,14,0.8189571499824524,25.21045684814453,6.579530239105225,2.4590163230895996,16.17190933227539,,,,
0.001,1749,,,,,,,,,,,
,1749,0.9216348528862,14,,,,,,,,,
0.001,1759,,,,,,,,,,,
,1759,0.9424134492874146,14,,,,,,,,,
0.001,1769,,,,,,,,,,,
,1769,0.8836268782615662,14,,,,,,,,,
0.001,1779,,,,,,,,,,,
,1779,0.883886992931366,14,,,,,,,,,
0.001,1789,,,,,,,,,,,
,1789,0.9631043672561646,14,,,,,,,,,
0.001,1799,,,,,,,,,,,
,1799,0.9609354734420776,14,,,,,,,,,
,1799,,14,0.8053476810455322,25.232608795166016,7.354896068572998,2.0824103355407715,15.795303344726562,,,,
,1799,,14,,,,,,31.17108154296875,9.122169494628906,3.319028377532959,18.729883193969727
0.001,1809,,,,,,,,,,,
,1809,0.9619218111038208,15,,,,,,,,,
0.001,1819,,,,,,,,,,,
,1819,0.9938998222351074,15,,,,,,,,,
0.001,1829,,,,,,,,,,,
,1829,1.1663521528244019,15,,,,,,,,,
0.001,1839,,,,,,,,,,,
,1839,0.9576277136802673,15,,,,,,,,,
0.001,1849,,,,,,,,,,,
,1849,1.0386037826538086,15,,,,,,,,,
0.001,1859,,,,,,,,,,,
,1859,1.018053412437439,15,,,,,,,,,
,1859,,15,0.8354719877243042,25.786441802978516,7.332742691040039,2.857775926589966,15.59592342376709,,,,
0.001,1869,,,,,,,,,,,
,1869,1.0168660879135132,15,,,,,,,,,
0.001,1879,,,,,,,,,,,
,1879,1.0320250988006592,15,,,,,,,,,
0.001,1889,,,,,,,,,,,
,1889,0.8541061282157898,15,,,,,,,,,
0.001,1899,,,,,,,,,,,
,1899,0.9680277705192566,15,,,,,,,,,
0.001,1909,,,,,,,,,,,
,1909,1.0268536806106567,15,,,,,,,,,
0.001,1919,,,,,,,,,,,
,1919,1.0654531717300415,15,,,,,,,,,
,1919,,15,0.8132815957069397,24.878156661987305,6.845369815826416,2.237483501434326,15.795303344726562,,,,
,1919,,15,,,,,,31.755107879638672,9.58647346496582,3.440768241882324,18.727867126464844
0.001,1929,,,,,,,,,,,
,1929,0.9487528204917908,16,,,,,,,,,
0.001,1939,,,,,,,,,,,
,1939,0.955191969871521,16,,,,,,,,,
0.001,1949,,,,,,,,,,,
,1949,0.9348674416542053,16,,,,,,,,,
0.001,1959,,,,,,,,,,,
,1959,1.0458086729049683,16,,,,,,,,,
0.001,1969,,,,,,,,,,,
,1969,1.1009459495544434,16,,,,,,,,,
0.001,1979,,,,,,,,,,,
,1979,0.8458012938499451,16,,,,,,,,,
,1979,,16,0.809676468372345,24.856002807617188,6.823216438293457,2.4590163230895996,15.573770523071289,,,,
0.001,1989,,,,,,,,,,,
,1989,0.903952419757843,16,,,,,,,,,
0.001,1999,,,,,,,,,,,
,1999,0.9020636081695557,16,,,,,,,,,
0.001,2009,,,,,,,,,,,
,2009,1.016419529914856,16,,,,,,,,,
0.001,2019,,,,,,,,,,,
,2019,1.0464226007461548,16,,,,,,,,,
0.001,2029,,,,,,,,,,,
,2029,0.8157497644424438,16,,,,,,,,,
0.001,2039,,,,,,,,,,,
,2039,1.0268845558166504,16,,,,,,,,,
,2039,,16,0.8544780611991882,26.60611343383789,7.5542755126953125,2.4147098064422607,16.637128829956055,,,,
,2039,,16,,,,,,30.925722122192383,9.21182918548584,3.3314993381500244,18.38239288330078
0.001,2049,,,,,,,,,,,
,2049,0.9644588828086853,17,,,,,,,,,
0.001,2059,,,,,,,,,,,
,2059,0.9436590671539307,17,,,,,,,,,
0.001,2069,,,,,,,,,,,
,2069,0.8284886479377747,17,,,,,,,,,
0.001,2079,,,,,,,,,,,
,2079,0.936040461063385,17,,,,,,,,,
0.001,2089,,,,,,,,,,,
,2089,0.9169676899909973,17,,,,,,,,,
0.001,2099,,,,,,,,,,,
,2099,1.0585856437683105,17,,,,,,,,,
,2099,,17,0.8206263184547424,25.808595657348633,8.55117416381836,1.794417381286621,15.463004112243652,,,,
0.001,2109,,,,,,,,,,,
,2109,0.979282557964325,17,,,,,,,,,
0.001,2119,,,,,,,,,,,
,2119,0.9330646395683289,17,,,,,,,,,
0.001,2129,,,,,,,,,,,
,2129,0.9601485729217529,17,,,,,,,,,
0.001,2139,,,,,,,,,,,
,2139,1.0179921388626099,17,,,,,,,,,
0.001,2149,,,,,,,,,,,
,2149,1.0132006406784058,17,,,,,,,,,
0.001,2159,,,,,,,,,,,
,2159,0.9749096632003784,17,,,,,,,,,
,2159,,17,0.8081566691398621,25.099689483642578,8.706247329711914,1.860877275466919,14.532565116882324,,,,
,2159,,17,,,,,,30.10773468017578,8.680737495422363,3.1879425048828125,18.23905372619629
0.001,2169,,,,,,,,,,,
,2169,0.9217190742492676,18,,,,,,,,,
0.001,2179,,,,,,,,,,,
,2179,1.0272279977798462,18,,,,,,,,,
0.001,2189,,,,,,,,,,,
,2189,0.9393393397331238,18,,,,,,,,,
0.001,2199,,,,,,,,,,,
,2199,0.9125744104385376,18,,,,,,,,,
0.001,2209,,,,,,,,,,,
,2209,0.8634690642356873,18,,,,,,,,,
0.001,2219,,,,,,,,,,,
,2219,0.8746443390846252,18,,,,,,,,,
,2219,,18,0.7878474593162537,25.299070358276367,6.579530239105225,2.769162654876709,15.950376510620117,,,,
0.001,2229,,,,,,,,,,,
,2229,0.8748248815536499,18,,,,,,,,,
0.001,2239,,,,,,,,,,,
,2239,0.9154865741729736,18,,,,,,,,,
0.001,2249,,,,,,,,,,,
,2249,1.0106991529464722,18,,,,,,,,,
0.001,2259,,,,,,,,,,,
,2259,0.8302509784698486,18,,,,,,,,,
0.001,2269,,,,,,,,,,,
,2269,0.8931792974472046,18,,,,,,,,,
0.001,2279,,,,,,,,,,,
,2279,0.8674523234367371,18,,,,,,,,,
,2279,,18,0.8224008083343506,25.21045684814453,7.155516147613525,2.4590163230895996,15.59592342376709,,,,
,2279,,18,,,,,,29.739803314208984,8.583063125610352,3.254883050918579,17.901857376098633
0.001,2289,,,,,,,,,,,
,2289,0.9626733660697937,19,,,,,,,,,
0.001,2299,,,,,,,,,,,
,2299,0.8996397256851196,19,,,,,,,,,
0.001,2309,,,,,,,,,,,
,2309,0.9561213254928589,19,,,,,,,,,
0.001,2319,,,,,,,,,,,
,2319,0.7493634819984436,19,,,,,,,,,
0.001,2329,,,,,,,,,,,
,2329,0.9722554087638855,19,,,,,,,,,
0.001,2339,,,,,,,,,,,
,2339,0.8504235148429871,19,,,,,,,,,
,2339,,19,0.7942802906036377,24.833850860595703,4.7851128578186035,3.1014621257781982,16.947275161743164,,,,
0.001,2349,,,,,,,,,,,
,2349,0.8915231227874756,19,,,,,,,,,
0.001,2359,,,,,,,,,,,
,2359,1.0215389728546143,19,,,,,,,,,
0.001,2369,,,,,,,,,,,
,2369,0.9602494835853577,19,,,,,,,,,
0.001,2379,,,,,,,,,,,
,2379,0.8858506083488464,19,,,,,,,,,
0.001,2389,,,,,,,,,,,
,2389,0.9697358012199402,19,,,,,,,,,
0.001,2399,,,,,,,,,,,
,2399,1.0737731456756592,19,,,,,,,,,
,2399,,19,0.7916591763496399,24.65662384033203,7.797961711883545,2.1045634746551514,14.754097938537598,,,,
,2399,,19,,,,,,30.232942581176758,8.857928276062012,3.474130392074585,17.9008846282959
0.001,2409,,,,,,,,,,,
,2409,0.8265279531478882,20,,,,,,,,,
0.001,2419,,,,,,,,,,,
,2419,0.9798178672790527,20,,,,,,,,,
0.001,2429,,,,,,,,,,,
,2429,0.9415103197097778,20,,,,,,,,,
0.001,2439,,,,,,,,,,,
,2439,0.7713311314582825,20,,,,,,,,,
0.001,2449,,,,,,,,,,,
,2449,0.9480271339416504,20,,,,,,,,,
0.001,2459,,,,,,,,,,,
,2459,0.8429138660430908,20,,,,,,,,,
,2459,,20,0.8110901713371277,24.67877769470215,5.338945388793945,3.300841808319092,16.038990020751953,,,,
0.001,2469,,,,,,,,,,,
,2469,0.9724483489990234,20,,,,,,,,,
0.001,2479,,,,,,,,,,,
,2479,1.0162302255630493,20,,,,,,,,,
0.001,2489,,,,,,,,,,,
,2489,0.9621831774711609,20,,,,,,,,,
0.001,2499,,,,,,,,,,,
,2499,0.8744244575500488,20,,,,,,,,,
0.001,2509,,,,,,,,,,,
,2509,0.8105244040489197,20,,,,,,,,,
0.001,2519,,,,,,,,,,,
,2519,0.8977721333503723,20,,,,,,,,,
,2519,,20,0.7676418423652649,24.080638885498047,6.2472310066223145,2.281790018081665,15.551617622375488,,,,
,2519,,20,,,,,,29.40925407409668,8.558372497558594,3.248272657394409,17.602609634399414
0.001,2529,,,,,,,,,,,
,2529,0.7907574772834778,21,,,,,,,,,
0.001,2539,,,,,,,,,,,
,2539,0.8916459679603577,21,,,,,,,,,
0.001,2549,,,,,,,,,,,
,2549,0.807345986366272,21,,,,,,,,,
0.001,2559,,,,,,,,,,,
,2559,0.8398131132125854,21,,,,,,,,,
0.001,2569,,,,,,,,,,,
,2569,0.9000535011291504,21,,,,,,,,,
0.001,2579,,,,,,,,,,,
,2579,0.8524451851844788,21,,,,,,,,,
,2579,,21,0.8277353048324585,25.476295471191406,8.329641342163086,1.7722641229629517,15.374390602111816,,,,
0.001,2589,,,,,,,,,,,
,2589,1.002386212348938,21,,,,,,,,,
0.001,2599,,,,,,,,,,,
,2599,0.7311303615570068,21,,,,,,,,,
0.001,2609,,,,,,,,,,,
,2609,0.9076526761054993,21,,,,,,,,,
0.001,2619,,,,,,,,,,,
,2619,0.9336819648742676,21,,,,,,,,,
0.001,2629,,,,,,,,,,,
,2629,0.86978679895401,21,,,,,,,,,
0.001,2639,,,,,,,,,,,
,2639,0.97962486743927,21,,,,,,,,,
,2639,,21,0.8092405200004578,25.03322982788086,7.399202346801758,2.769162654876709,14.86486530303955,,,,
,2639,,21,,,,,,29.102802276611328,8.40184497833252,3.1976864337921143,17.503271102905273
0.001,2649,,,,,,,,,,,
,2649,0.8980830907821655,22,,,,,,,,,
0.001,2659,,,,,,,,,,,
,2659,1.271060585975647,22,,,,,,,,,
0.001,2669,,,,,,,,,,,
,2669,1.0906294584274292,22,,,,,,,,,
0.001,2679,,,,,,,,,,,
,2679,1.0099841356277466,22,,,,,,,,,
0.001,2689,,,,,,,,,,,
,2689,1.2095330953598022,22,,,,,,,,,
0.001,2699,,,,,,,,,,,
,2699,0.8658768534660339,22,,,,,,,,,
,2699,,22,0.9144387245178223,28.5777587890625,10.10190486907959,1.9051839113235474,16.570669174194336,,,,
0.001,2709,,,,,,,,,,,
,2709,1.025029182434082,22,,,,,,,,,
0.001,2719,,,,,,,,,,,
,2719,0.9517920017242432,22,,,,,,,,,
0.001,2729,,,,,,,,,,,
,2729,1.0597822666168213,22,,,,,,,,,
0.001,2739,,,,,,,,,,,
,2739,1.086409330368042,22,,,,,,,,,
0.001,2749,,,,,,,,,,,
,2749,1.042926549911499,22,,,,,,,,,
0.001,2759,,,,,,,,,,,
,2759,0.9565994143486023,22,,,,,,,,,
,2759,,22,0.8467899560928345,26.451040267944336,8.750554084777832,1.860877275466919,15.83961009979248,,,,
,2759,,22,,,,,,32.74005126953125,10.40122127532959,3.4469003677368164,18.891929626464844
0.001,2769,,,,,,,,,,,
,2769,0.8471184968948364,23,,,,,,,,,
0.001,2779,,,,,,,,,,,
,2779,0.9902929663658142,23,,,,,,,,,
0.001,2789,,,,,,,,,,,
,2789,1.047173261642456,23,,,,,,,,,
0.001,2799,,,,,,,,,,,
,2799,0.9249691963195801,23,,,,,,,,,
0.001,2809,,,,,,,,,,,
,2809,0.9265000820159912,23,,,,,,,,,
0.001,2819,,,,,,,,,,,
,2819,0.945376992225647,23,,,,,,,,,
,2819,,23,0.879796028137207,26.628267288208008,8.462560653686523,2.1488702297210693,16.016836166381836,,,,
0.001,2829,,,,,,,,,,,
,2829,0.9026073813438416,23,,,,,,,,,
0.001,2839,,,,,,,,,,,
,2839,1.016595721244812,23,,,,,,,,,
0.001,2849,,,,,,,,,,,
,2849,0.7985438108444214,23,,,,,,,,,
0.001,2859,,,,,,,,,,,
,2859,0.8847386240959167,23,,,,,,,,,
0.001,2869,,,,,,,,,,,
,2869,0.9147952795028687,23,,,,,,,,,
0.001,2879,,,,,,,,,,,
,2879,0.7536857724189758,23,,,,,,,,,
,2879,,23,0.8076223134994507,24.324323654174805,7.487815856933594,2.303943395614624,14.532565116882324,,,,
,2879,,23,,,,,,30.060131072998047,8.87860107421875,3.3709096908569336,17.81062126159668
0.001,2889,,,,,,,,,,,
,2889,1.0251551866531372,24,,,,,,,,,
0.001,2899,,,,,,,,,,,
,2899,0.9181100130081177,24,,,,,,,,,
0.001,2909,,,,,,,,,,,
,2909,0.8736196160316467,24,,,,,,,,,
0.001,2919,,,,,,,,,,,
,2919,0.915816605091095,24,,,,,,,,,
0.001,2929,,,,,,,,,,,
,2929,1.018149733543396,24,,,,,,,,,
0.001,2939,,,,,,,,,,,
,2939,0.9985712170600891,24,,,,,,,,,
,2939,,24,0.7729102969169617,24.30217170715332,6.801063537597656,2.4590163230895996,15.042091369628906,,,,
0.001,2949,,,,,,,,,,,
,2949,1.0166560411453247,24,,,,,,,,,
0.001,2959,,,,,,,,,,,
,2959,0.9791347980499268,24,,,,,,,,,
0.001,2969,,,,,,,,,,,
,2969,1.0387799739837646,24,,,,,,,,,
0.001,2979,,,,,,,,,,,
,2979,0.8807880282402039,24,,,,,,,,,
0.001,2989,,,,,,,,,,,
,2989,1.0246753692626953,24,,,,,,,,,
0.001,2999,,,,,,,,,,,
,2999,0.9006420969963074,24,,,,,,,,,
,2999,,24,0.8314792513847351,25.852901458740234,8.949934005737305,1.5950376987457275,15.307930946350098,,,,
,2999,,24,,,,,,29.437335968017578,8.51974105834961,3.342963218688965,17.57463264465332
0.001,3009,,,,,,,,,,,
,3009,0.8687774538993835,25,,,,,,,,,
0.001,3019,,,,,,,,,,,
,3019,0.955839991569519,25,,,,,,,,,
0.001,3029,,,,,,,,,,,
,3029,0.8490023612976074,25,,,,,,,,,
0.001,3039,,,,,,,,,,,
,3039,0.9285262227058411,25,,,,,,,,,
0.001,3049,,,,,,,,,,,
,3049,0.9659362435340881,25,,,,,,,,,
0.001,3059,,,,,,,,,,,
,3059,0.8645402789115906,25,,,,,,,,,
,3059,,25,0.7847976684570312,24.457244873046875,6.71245002746582,2.5254762172698975,15.219317436218262,,,,
0.001,3069,,,,,,,,,,,
,3069,0.9116127490997314,25,,,,,,,,,
0.001,3079,,,,,,,,,,,
,3079,1.0910224914550781,25,,,,,,,,,
0.001,3089,,,,,,,,,,,
,3089,0.8795720934867859,25,,,,,,,,,
0.001,3099,,,,,,,,,,,
,3099,0.7560359835624695,25,,,,,,,,,
0.001,3109,,,,,,,,,,,
,3109,0.7908816337585449,25,,,,,,,,,
0.001,3119,,,,,,,,,,,
,3119,0.9401542544364929,25,,,,,,,,,
,3119,,25,0.8085730671882629,24.96677017211914,8.617633819580078,1.5728843212127686,14.776251792907715,,,,
,3119,,25,,,,,,28.40995216369629,8.156072616577148,3.335949182510376,16.917930603027344
0.001,3129,,,,,,,,,,,
,3129,0.8857569098472595,26,,,,,,,,,
0.001,3139,,,,,,,,,,,
,3139,0.8413984179496765,26,,,,,,,,,
0.001,3149,,,,,,,,,,,
,3149,0.7997010946273804,26,,,,,,,,,
0.001,3159,,,,,,,,,,,
,3159,0.8060187697410583,26,,,,,,,,,
0.001,3169,,,,,,,,,,,
,3169,0.9002517461776733,26,,,,,,,,,
0.001,3179,,,,,,,,,,,
,3179,0.913306713104248,26,,,,,,,,,
,3179,,26,0.7561596632003784,23.083740234375,6.1364641189575195,1.9716438055038452,14.975631713867188,,,,
0.001,3189,,,,,,,,,,,
,3189,0.7221441268920898,26,,,,,,,,,
0.001,3199,,,,,,,,,,,
,3199,0.8740958571434021,26,,,,,,,,,
0.001,3209,,,,,,,,,,,
,3209,0.7819400429725647,26,,,,,,,,,
0.001,3219,,,,,,,,,,,
,3219,0.8779516220092773,26,,,,,,,,,
0.001,3229,,,,,,,,,,,
,3229,0.74947589635849,26,,,,,,,,,
0.001,3239,,,,,,,,,,,
,3239,0.865399181842804,26,,,,,,,,,
,3239,,26,0.7497722506523132,23.39388656616211,5.981391429901123,2.702702760696411,14.709792137145996,,,,
,3239,,26,,,,,,28.108768463134766,8.024402618408203,3.312814235687256,16.77155113220215
0.001,3249,,,,,,,,,,,
,3249,0.8756372332572937,27,,,,,,,,,
0.001,3259,,,,,,,,,,,
,3259,0.8432268500328064,27,,,,,,,,,
0.001,3269,,,,,,,,,,,
,3269,0.6152064204216003,27,,,,,,,,,
0.001,3279,,,,,,,,,,,
,3279,0.9653929471969604,27,,,,,,,,,
0.001,3289,,,,,,,,,,,
,3289,0.8645121455192566,27,,,,,,,,,
0.001,3299,,,,,,,,,,,
,3299,0.9126879572868347,27,,,,,,,,,
,3299,,27,0.7629921436309814,23.615419387817383,8.373948097229004,1.9716438055038452,13.269826889038086,,,,
0.001,3309,,,,,,,,,,,
,3309,0.8351185917854309,27,,,,,,,,,
0.001,3319,,,,,,,,,,,
,3319,0.9238167405128479,27,,,,,,,,,
0.001,3329,,,,,,,,,,,
,3329,0.8777422308921814,27,,,,,,,,,
0.001,3339,,,,,,,,,,,
,3339,0.8401318788528442,27,,,,,,,,,
0.001,3349,,,,,,,,,,,
,3349,0.925696611404419,27,,,,,,,,,
0.001,3359,,,,,,,,,,,
,3359,0.8211499452590942,27,,,,,,,,,
,3359,,27,0.7721689939498901,22.374834060668945,3.5002214908599854,3.3673017024993896,15.50731086730957,,,,
,3359,,27,,,,,,27.104734420776367,7.752471923828125,3.1299054622650146,16.22235679626465
0.001,3369,,,,,,,,,,,
,3369,0.7869846820831299,28,,,,,,,,,
0.001,3379,,,,,,,,,,,
,3379,0.7592739462852478,28,,,,,,,,,
0.001,3389,,,,,,,,,,,
,3389,0.8202140927314758,28,,,,,,,,,
0.001,3399,,,,,,,,,,,
,3399,0.8113237023353577,28,,,,,,,,,
0.001,3409,,,,,,,,,,,
,3409,0.7320729494094849,28,,,,,,,,,
0.001,3419,,,,,,,,,,,
,3419,0.8599978089332581,28,,,,,,,,,
,3419,,28,0.7475888729095459,22.396987915039062,4.7851128578186035,2.9906957149505615,14.62117862701416,,,,
0.001,3429,,,,,,,,,,,
,3429,0.908528208732605,28,,,,,,,,,
0.001,3439,,,,,,,,,,,
,3439,0.8510316014289856,28,,,,,,,,,
0.001,3449,,,,,,,,,,,
,3449,0.8704079985618591,28,,,,,,,,,
0.001,3459,,,,,,,,,,,
,3459,0.8835689425468445,28,,,,,,,,,
0.001,3469,,,,,,,,,,,
,3469,0.8107514381408691,28,,,,,,,,,
0.001,3479,,,,,,,,,,,
,3479,0.8438825011253357,28,,,,,,,,,
,3479,,28,0.7779034376144409,23.43819236755371,6.468763828277588,2.1045634746551514,14.86486530303955,,,,
,3479,,28,,,,,,27.05353355407715,7.512034893035889,3.10357666015625,16.43792152404785
0.001,3489,,,,,,,,,,,
,3489,0.9019946455955505,29,,,,,,,,,
0.001,3499,,,,,,,,,,,
,3499,0.7713176608085632,29,,,,,,,,,
0.001,3509,,,,,,,,,,,
,3509,0.7603023648262024,29,,,,,,,,,
0.001,3519,,,,,,,,,,,
,3519,0.6791889667510986,29,,,,,,,,,
0.001,3529,,,,,,,,,,,
,3529,0.8627678155899048,29,,,,,,,,,
0.001,3539,,,,,,,,,,,
,3539,0.7472295165061951,29,,,,,,,,,
,3539,,29,0.7423089146614075,22.108993530273438,5.78201150894165,2.281790018081665,14.04519271850586,,,,
0.001,3549,,,,,,,,,,,
,3549,0.9046675562858582,29,,,,,,,,,
0.001,3559,,,,,,,,,,,
,3559,0.8382799625396729,29,,,,,,,,,
0.001,3569,,,,,,,,,,,
,3569,0.8360773921012878,29,,,,,,,,,
0.001,3579,,,,,,,,,,,
,3579,0.835945188999176,29,,,,,,,,,
0.001,3589,,,,,,,,,,,
,3589,0.8282461762428284,29,,,,,,,,,
0.001,3599,,,,,,,,,,,
,3599,0.8067682385444641,29,,,,,,,,,
,3599,,29,0.7559655904769897,23.15019989013672,6.845369815826416,1.8165706396102905,14.488258361816406,,,,
,3599,,29,,,,,,26.726333618164062,7.501549243927002,3.1270222663879395,16.097763061523438
0.001,3609,,,,,,,,,,,
,3609,0.8610137701034546,30,,,,,,,,,
0.001,3619,,,,,,,,,,,
,3619,0.7345836758613586,30,,,,,,,,,
0.001,3629,,,,,,,,,,,
,3629,0.8493391275405884,30,,,,,,,,,
0.001,3639,,,,,,,,,,,
,3639,0.8505260348320007,30,,,,,,,,,
0.001,3649,,,,,,,,,,,
,3649,0.9997705817222595,30,,,,,,,,,
0.001,3659,,,,,,,,,,,
,3659,0.7725253105163574,30,,,,,,,,,
,3659,,30,0.7441930174827576,22.485599517822266,5.693398475646973,2.259636640548706,14.532565116882324,,,,
0.001,3669,,,,,,,,,,,
,3669,0.7800137996673584,30,,,,,,,,,
0.001,3679,,,,,,,,,,,
,3679,0.8387971520423889,30,,,,,,,,,
0.001,3689,,,,,,,,,,,
,3689,0.9247363805770874,30,,,,,,,,,
0.001,3699,,,,,,,,,,,
,3699,0.8463264107704163,30,,,,,,,,,
0.001,3709,,,,,,,,,,,
,3709,0.876798689365387,30,,,,,,,,,
0.001,3719,,,,,,,,,,,
,3719,0.7586811780929565,30,,,,,,,,,
,3719,,30,0.7530137300491333,23.26096534729004,6.756756782531738,2.1267168521881104,14.37749195098877,,,,
,3719,,30,,,,,,26.387248992919922,7.626094818115234,3.233024835586548,15.528129577636719
0.001,3729,,,,,,,,,,,
,3729,0.7015994787216187,31,,,,,,,,,
0.001,3739,,,,,,,,,,,
,3739,0.8802477121353149,31,,,,,,,,,
0.001,3749,,,,,,,,,,,
,3749,0.7366121411323547,31,,,,,,,,,
0.001,3759,,,,,,,,,,,
,3759,0.8457232117652893,31,,,,,,,,,
0.001,3769,,,,,,,,,,,
,3769,0.8399126529693604,31,,,,,,,,,
0.001,3779,,,,,,,,,,,
,3779,0.6730587482452393,31,,,,,,,,,
,3779,,31,0.7482884526252747,22.751440048217773,6.42445707321167,1.8830305337905884,14.443952560424805,,,,
0.001,3789,,,,,,,,,,,
,3789,0.7745006084442139,31,,,,,,,,,
0.001,3799,,,,,,,,,,,
,3799,0.9778129458427429,31,,,,,,,,,
0.001,3809,,,,,,,,,,,
,3809,0.8929837942123413,31,,,,,,,,,
0.001,3819,,,,,,,,,,,
,3819,0.8500864505767822,31,,,,,,,,,
0.001,3829,,,,,,,,,,,
,3829,0.79118412733078,31,,,,,,,,,
0.001,3839,,,,,,,,,,,
,3839,0.8023650050163269,31,,,,,,,,,
,3839,,31,0.7666317820549011,22.64067268371582,4.209126949310303,2.857775926589966,15.573770523071289,,,,
,3839,,31,,,,,,26.781728744506836,7.7385053634643555,3.199812650680542,15.843411445617676
0.001,3849,,,,,,,,,,,
,3849,0.7321352958679199,32,,,,,,,,,
0.001,3859,,,,,,,,,,,
,3859,0.8053587675094604,32,,,,,,,,,
0.001,3869,,,,,,,,,,,
,3869,0.8080026507377625,32,,,,,,,,,
0.001,3879,,,,,,,,,,,
,3879,0.7757304906845093,32,,,,,,,,,
0.001,3889,,,,,,,,,,,
,3889,0.7783709764480591,32,,,,,,,,,
0.001,3899,,,,,,,,,,,
,3899,0.7434358596801758,32,,,,,,,,,
,3899,,32,0.7359287142753601,21.953920364379883,5.028799057006836,2.5697829723358154,14.355339050292969,,,,
0.001,3909,,,,,,,,,,,
,3909,0.7409172058105469,32,,,,,,,,,
0.001,3919,,,,,,,,,,,
,3919,0.8136918544769287,32,,,,,,,,,
0.001,3929,,,,,,,,,,,
,3929,0.7752992510795593,32,,,,,,,,,
0.001,3939,,,,,,,,,,,
,3939,0.8342668414115906,32,,,,,,,,,
0.001,3949,,,,,,,,,,,
,3949,0.8202499747276306,32,,,,,,,,,
0.001,3959,,,,,,,,,,,
,3959,0.8049104809761047,32,,,,,,,,,
,3959,,32,0.736007034778595,22.28622055053711,5.028799057006836,2.4811697006225586,14.776251792907715,,,,
,3959,,32,,,,,,25.671546936035156,7.2818922996521,3.0642576217651367,15.325397491455078
0.001,3969,,,,,,,,,,,
,3969,0.7016376256942749,33,,,,,,,,,
0.001,3979,,,,,,,,,,,
,3979,0.8011853694915771,33,,,,,,,,,
0.001,3989,,,,,,,,,,,
,3989,0.6941211819648743,33,,,,,,,,,
0.001,3999,,,,,,,,,,,
,3999,0.8240107297897339,33,,,,,,,,,
0.001,4009,,,,,,,,,,,
,4009,0.7447178363800049,33,,,,,,,,,
0.001,4019,,,,,,,,,,,
,4019,0.7543467283248901,33,,,,,,,,,
,4019,,33,0.739818811416626,21.643774032592773,4.56358003616333,2.857775926589966,14.222418785095215,,,,
0.001,4029,,,,,,,,,,,
,4029,0.8208880424499512,33,,,,,,,,,
0.001,4039,,,,,,,,,,,
,4039,0.825570821762085,33,,,,,,,,,
0.001,4049,,,,,,,,,,,
,4049,0.8741781115531921,33,,,,,,,,,
0.001,4059,,,,,,,,,,,
,4059,0.8334383964538574,33,,,,,,,,,
0.001,4069,,,,,,,,,,,
,4069,0.7612727284431458,33,,,,,,,,,
0.001,4079,,,,,,,,,,,
,4079,0.7388890385627747,33,,,,,,,,,
,4079,,33,0.73271244764328,21.9317684173584,6.535223960876465,1.9273371696472168,13.469206809997559,,,,
,4079,,33,,,,,,25.20513153076172,7.066743850708008,3.1733574867248535,14.965030670166016
0.001,4089,,,,,,,,,,,
,4089,0.657185971736908,34,,,,,,,,,
0.001,4099,,,,,,,,,,,
,4099,0.8373106122016907,34,,,,,,,,,
0.001,4109,,,,,,,,,,,
,4109,0.8709920048713684,34,,,,,,,,,
0.001,4119,,,,,,,,,,,
,4119,0.6956042051315308,34,,,,,,,,,
0.001,4129,,,,,,,,,,,
,4129,0.7664079070091248,34,,,,,,,,,
0.001,4139,,,,,,,,,,,
,4139,0.6975530982017517,34,,,,,,,,,
,4139,,34,0.7832710146903992,25.03322982788086,7.133362770080566,2.1267168521881104,15.773150444030762,,,,
0.001,4149,,,,,,,,,,,
,4149,0.7860754728317261,34,,,,,,,,,
0.001,4159,,,,,,,,,,,
,4159,0.700514018535614,34,,,,,,,,,
0.001,4169,,,,,,,,,,,
,4169,0.8852209448814392,34,,,,,,,,,
0.001,4179,,,,,,,,,,,
,4179,0.7243301272392273,34,,,,,,,,,
0.001,4189,,,,,,,,,,,
,4189,0.8111003041267395,34,,,,,,,,,
0.001,4199,,,,,,,,,,,
,4199,0.8840770721435547,34,,,,,,,,,
,4199,,34,0.6985342502593994,21.3779354095459,5.959238052368164,2.193176746368408,13.225520133972168,,,,
,4199,,34,,,,,,25.26302719116211,7.250622272491455,3.1494545936584473,14.862950325012207
0.001,4209,,,,,,,,,,,
,4209,0.7405776977539062,35,,,,,,,,,
0.001,4219,,,,,,,,,,,
,4219,0.7182380557060242,35,,,,,,,,,
0.001,4229,,,,,,,,,,,
,4229,0.805050790309906,35,,,,,,,,,
0.001,4239,,,,,,,,,,,
,4239,0.737632155418396,35,,,,,,,,,
0.001,4249,,,,,,,,,,,
,4249,0.6777513027191162,35,,,,,,,,,
0.001,4259,,,,,,,,,,,
,4259,0.7556560039520264,35,,,,,,,,,
,4259,,35,0.7734630703926086,22.441293716430664,5.272485733032227,2.9242358207702637,14.244572639465332,,,,
0.001,4269,,,,,,,,,,,
,4269,0.7297307252883911,35,,,,,,,,,
0.001,4279,,,,,,,,,,,
,4279,0.9172331690788269,35,,,,,,,,,
0.001,4289,,,,,,,,,,,
,4289,0.8233310580253601,35,,,,,,,,,
0.001,4299,,,,,,,,,,,
,4299,0.7433528900146484,35,,,,,,,,,
0.001,4309,,,,,,,,,,,
,4309,0.7137099504470825,35,,,,,,,,,
0.001,4319,,,,,,,,,,,
,4319,0.807736873626709,35,,,,,,,,,
,4319,,35,0.7503180503845215,22.5742130279541,4.89587926864624,3.256535291671753,14.421798706054688,,,,
,4319,,35,,,,,,24.789344787597656,7.069512844085693,3.0859529972076416,14.633877754211426
0.001,4329,,,,,,,,,,,
,4329,0.8620822429656982,36,,,,,,,,,
0.001,4339,,,,,,,,,,,
,4339,0.6722461581230164,36,,,,,,,,,
0.001,4349,,,,,,,,,,,
,4349,0.8149785995483398,36,,,,,,,,,
0.001,4359,,,,,,,,,,,
,4359,0.7170505523681641,36,,,,,,,,,
0.001,4369,,,,,,,,,,,
,4369,0.6991989612579346,36,,,,,,,,,
0.001,4379,,,,,,,,,,,
,4379,0.6931218504905701,36,,,,,,,,,
,4379,,36,0.7384785413742065,22.086841583251953,5.471865177154541,2.303943395614624,14.31103229522705,,,,
0.001,4389,,,,,,,,,,,
,4389,0.7572668194770813,36,,,,,,,,,
0.001,4399,,,,,,,,,,,
,4399,0.7428220510482788,36,,,,,,,,,
0.001,4409,,,,,,,,,,,
,4409,0.7552555203437805,36,,,,,,,,,
0.001,4419,,,,,,,,,,,
,4419,0.7865714430809021,36,,,,,,,,,
0.001,4429,,,,,,,,,,,
,4429,0.8152843117713928,36,,,,,,,,,
0.001,4439,,,,,,,,,,,
,4439,0.9711539149284363,36,,,,,,,,,
,4439,,36,0.7355729341506958,22.264066696166992,5.405405521392822,1.9273371696472168,14.93132495880127,,,,
,4439,,36,,,,,,24.727397918701172,6.89309024810791,3.187349557876587,14.646957397460938
0.001,4449,,,,,,,,,,,
,4449,0.7780348062515259,37,,,,,,,,,
0.001,4459,,,,,,,,,,,
,4459,0.7646690011024475,37,,,,,,,,,
0.001,4469,,,,,,,,,,,
,4469,0.5635956525802612,37,,,,,,,,,
0.001,4479,,,,,,,,,,,
,4479,0.7599349617958069,37,,,,,,,,,
0.001,4489,,,,,,,,,,,
,4489,0.7645352482795715,37,,,,,,,,,
0.001,4499,,,,,,,,,,,
,4499,0.854556679725647,37,,,,,,,,,
,4499,,37,0.7787955403327942,23.305273056030273,7.177669525146484,1.9273371696472168,14.200265884399414,,,,
0.001,4509,,,,,,,,,,,
,4509,0.756208062171936,37,,,,,,,,,
0.001,4519,,,,,,,,,,,
,4519,0.7442739605903625,37,,,,,,,,,
0.001,4529,,,,,,,,,,,
,4529,0.7862107753753662,37,,,,,,,,,
0.001,4539,,,,,,,,,,,
,4539,0.7160095572471619,37,,,,,,,,,
0.001,4549,,,,,,,,,,,
,4549,0.7679057121276855,37,,,,,,,,,
0.001,4559,,,,,,,,,,,
,4559,0.6581889390945435,37,,,,,,,,,
,4559,,37,0.7475289106369019,22.795745849609375,6.1364641189575195,2.1045634746551514,14.554718971252441,,,,
,4559,,37,,,,,,24.636343002319336,6.923246383666992,3.146178960800171,14.56691837310791
0.001,4569,,,,,,,,,,,
,4569,0.6180440187454224,38,,,,,,,,,
0.001,4579,,,,,,,,,,,
,4579,0.7663540840148926,38,,,,,,,,,
0.001,4589,,,,,,,,,,,
,4589,0.8120110034942627,38,,,,,,,,,
0.001,4599,,,,,,,,,,,
,4599,0.691561758518219,38,,,,,,,,,
0.001,4609,,,,,,,,,,,
,4609,0.8256821036338806,38,,,,,,,,,
0.001,4619,,,,,,,,,,,
,4619,0.8145516514778137,38,,,,,,,,,
,4619,,38,0.7493450045585632,22.308374404907227,5.737704753875732,2.348249912261963,14.222418785095215,,,,
0.001,4629,,,,,,,,,,,
,4629,0.6587538719177246,38,,,,,,,,,
0.001,4639,,,,,,,,,,,
,4639,0.7258185148239136,38,,,,,,,,,
0.001,4649,,,,,,,,,,,
,4649,0.725164532661438,38,,,,,,,,,
0.001,4659,,,,,,,,,,,
,4659,0.772754967212677,38,,,,,,,,,
0.001,4669,,,,,,,,,,,
,4669,0.8094015717506409,38,,,,,,,,,
0.001,4679,,,,,,,,,,,
,4679,0.7285104990005493,38,,,,,,,,,
,4679,,38,0.6971896290779114,21.62162208557129,5.4940185546875,2.0602569580078125,14.06734561920166,,,,
,4679,,38,,,,,,23.7761173248291,6.762598037719727,3.0132710933685303,14.000248908996582
0.001,4689,,,,,,,,,,,
,4689,0.6320258975028992,39,,,,,,,,,
0.001,4699,,,,,,,,,,,
,4699,0.7051998376846313,39,,,,,,,,,
0.001,4709,,,,,,,,,,,
,4709,0.805866539478302,39,,,,,,,,,
0.001,4719,,,,,,,,,,,
,4719,0.7726703882217407,39,,,,,,,,,
0.001,4729,,,,,,,,,,,
,4729,0.6777138113975525,39,,,,,,,,,
0.001,4739,,,,,,,,,,,
,4739,0.6668296456336975,39,,,,,,,,,
,4739,,39,0.7000232934951782,20.64687728881836,5.16171932220459,2.215330123901367,13.269826889038086,,,,
0.001,4749,,,,,,,,,,,
,4749,0.7190967798233032,39,,,,,,,,,
0.001,4759,,,,,,,,,,,
,4759,0.6654106974601746,39,,,,,,,,,
0.001,4769,,,,,,,,,,,
,4769,0.752727210521698,39,,,,,,,,,
0.001,4779,,,,,,,,,,,
,4779,0.8812344670295715,39,,,,,,,,,
0.001,4789,,,,,,,,,,,
,4789,0.8523772358894348,39,,,,,,,,,
0.001,4799,,,,,,,,,,,
,4799,0.895455539226532,39,,,,,,,,,
,4799,,39,0.7257659435272217,21.97607421875,5.516171932220459,2.215330123901367,14.244572639465332,,,,
,4799,,39,,,,,,23.59984588623047,6.793874263763428,3.1274917125701904,13.67848014831543
0.001,4809,,,,,,,,,,,
,4809,0.6708404421806335,40,,,,,,,,,
0.001,4819,,,,,,,,,,,
,4819,0.7048171758651733,40,,,,,,,,,
0.001,4829,,,,,,,,,,,
,4829,0.5776288509368896,40,,,,,,,,,
0.001,4839,,,,,,,,,,,
,4839,0.6712286472320557,40,,,,,,,,,
0.001,4849,,,,,,,,,,,
,4849,0.8075569272041321,40,,,,,,,,,
0.001,4859,,,,,,,,,,,
,4859,0.6735950112342834,40,,,,,,,,,
,4859,,40,0.773463785648346,23.15019989013672,7.997341632843018,1.6393442153930664,13.513513565063477,,,,
0.001,4869,,,,,,,,,,,
,4869,0.8571224212646484,40,,,,,,,,,
0.001,4879,,,,,,,,,,,
,4879,0.7336297631263733,40,,,,,,,,,
0.001,4889,,,,,,,,,,,
,4889,0.6470473408699036,40,,,,,,,,,
0.001,4899,,,,,,,,,,,
,4899,0.7943232655525208,40,,,,,,,,,
0.001,4909,,,,,,,,,,,
,4909,0.7706345915794373,40,,,,,,,,,
0.001,4919,,,,,,,,,,,
,4919,0.8170969486236572,40,,,,,,,,,
,4919,,40,0.718498945236206,21.267168045043945,5.937084674835205,2.0159504413604736,13.314133644104004,,,,
,4919,,40,,,,,,23.879098892211914,6.838912010192871,3.092712640762329,13.947473526000977
0.001,4929,,,,,,,,,,,
,4929,0.6521658897399902,41,,,,,,,,,
0.001,4939,,,,,,,,,,,
,4939,0.7959408760070801,41,,,,,,,,,
0.001,4949,,,,,,,,,,,
,4949,0.6960275769233704,41,,,,,,,,,
0.001,4959,,,,,,,,,,,
,4959,0.6686850190162659,41,,,,,,,,,
0.001,4969,,,,,,,,,,,
,4969,0.7475758194923401,41,,,,,,,,,
0.001,4979,,,,,,,,,,,
,4979,0.7294986844062805,41,,,,,,,,,
,4979,,41,0.7755181789398193,22.684980392456055,6.446610450744629,2.5476295948028564,13.690739631652832,,,,
0.001,4989,,,,,,,,,,,
,4989,0.7342601418495178,41,,,,,,,,,
0.001,4999,,,,,,,,,,,
,4999,0.836746335029602,41,,,,,,,,,
0.001,5009,,,,,,,,,,,
,5009,0.7133709192276001,41,,,,,,,,,
0.001,5019,,,,,,,,,,,
,5019,0.7179178595542908,41,,,,,,,,,
0.001,5029,,,,,,,,,,,
,5029,0.781091034412384,41,,,,,,,,,
0.001,5039,,,,,,,,,,,
,5039,0.744373083114624,41,,,,,,,,,
,5039,,41,0.7574077248573303,22.751440048217773,6.623836994171143,1.6614975929260254,14.466105461120605,,,,
,5039,,41,,,,,,23.735971450805664,6.779544353485107,3.2171545028686523,13.73927116394043
0.001,5049,,,,,,,,,,,
,5049,0.7641506791114807,42,,,,,,,,,
0.001,5059,,,,,,,,,,,
,5059,0.6381654143333435,42,,,,,,,,,
0.001,5069,,,,,,,,,,,
,5069,0.6447486877441406,42,,,,,,,,,
0.001,5079,,,,,,,,,,,
,5079,0.7272489666938782,42,,,,,,,,,
0.001,5089,,,,,,,,,,,
,5089,0.6875684261322021,42,,,,,,,,,
0.001,5099,,,,,,,,,,,
,5099,0.7002233266830444,42,,,,,,,,,
,5099,,42,0.7348378896713257,21.97607421875,5.759858131408691,2.4147098064422607,13.801506042480469,,,,
0.001,5109,,,,,,,,,,,
,5109,0.6925680041313171,42,,,,,,,,,
0.001,5119,,,,,,,,,,,
,5119,0.6535416841506958,42,,,,,,,,,
0.001,5129,,,,,,,,,,,
,5129,0.7026764154434204,42,,,,,,,,,
0.001,5139,,,,,,,,,,,
,5139,0.6678305268287659,42,,,,,,,,,
0.001,5149,,,,,,,,,,,
,5149,0.6483116149902344,42,,,,,,,,,
0.001,5159,,,,,,,,,,,
,5159,0.696030855178833,42,,,,,,,,,
,5159,,42,0.7164513468742371,20.8241024017334,5.361098766326904,2.3925564289093018,13.07044792175293,,,,
,5159,,42,,,,,,22.521495819091797,6.3195343017578125,2.9709088802337646,13.23105239868164
0.001,5169,,,,,,,,,,,
,5169,0.5930393934249878,43,,,,,,,,,
0.001,5179,,,,,,,,,,,
,5179,0.621212899684906,43,,,,,,,,,
0.001,5189,,,,,,,,,,,
,5189,0.6808503866195679,43,,,,,,,,,
0.001,5199,,,,,,,,,,,
,5199,0.6306486129760742,43,,,,,,,,,
0.001,5209,,,,,,,,,,,
,5209,0.6268464922904968,43,,,,,,,,,
0.001,5219,,,,,,,,,,,
,5219,0.8168237805366516,43,,,,,,,,,
,5219,,43,0.7390264272689819,22.153301239013672,5.626938343048096,2.0824103355407715,14.443952560424805,,,,
0.001,5229,,,,,,,,,,,
,5229,0.6599024534225464,43,,,,,,,,,
0.001,5239,,,,,,,,,,,
,5239,0.7350268363952637,43,,,,,,,,,
0.001,5249,,,,,,,,,,,
,5249,0.7396289110183716,43,,,,,,,,,
0.001,5259,,,,,,,,,,,
,5259,0.6926934123039246,43,,,,,,,,,
0.001,5269,,,,,,,,,,,
,5269,0.6575224995613098,43,,,,,,,,,
0.001,5279,,,,,,,,,,,
,5279,0.6670440435409546,43,,,,,,,,,
,5279,,43,0.7457267045974731,21.776695251464844,6.1807708740234375,2.259636640548706,13.336287498474121,,,,
,5279,,43,,,,,,21.987003326416016,6.27395486831665,3.089582681655884,12.623466491699219
0.001,5289,,,,,,,,,,,
,5289,0.7020055055618286,44,,,,,,,,,
0.001,5299,,,,,,,,,,,
,5299,0.7772229909896851,44,,,,,,,,,
0.001,5309,,,,,,,,,,,
,5309,0.768672525882721,44,,,,,,,,,
0.001,5319,,,,,,,,,,,
,5319,0.7311244606971741,44,,,,,,,,,
0.001,5329,,,,,,,,,,,
,5329,0.7336263656616211,44,,,,,,,,,
0.001,5339,,,,,,,,,,,
,5339,0.7267708778381348,44,,,,,,,,,
,5339,,44,0.7359910607337952,21.466548919677734,4.8515729904174805,2.4147098064422607,14.200265884399414,,,,
0.001,5349,,,,,,,,,,,
,5349,0.7746426463127136,44,,,,,,,,,
0.001,5359,,,,,,,,,,,
,5359,0.6951689720153809,44,,,,,,,,,
0.001,5369,,,,,,,,,,,
,5369,0.6314916610717773,44,,,,,,,,,
0.001,5379,,,,,,,,,,,
,5379,0.6475606560707092,44,,,,,,,,,
0.001,5389,,,,,,,,,,,
,5389,0.5919424891471863,44,,,,,,,,,
0.001,5399,,,,,,,,,,,
,5399,0.6454119086265564,44,,,,,,,,,
,5399,,44,0.7278178334236145,22.04253387451172,5.250332355499268,2.326096534729004,14.466105461120605,,,,
,5399,,44,,,,,,22.846086502075195,6.614609241485596,3.100038528442383,13.131438255310059
0.001,5409,,,,,,,,,,,
,5409,0.5933226943016052,45,,,,,,,,,
0.001,5419,,,,,,,,,,,
,5419,0.6302079558372498,45,,,,,,,,,
0.001,5429,,,,,,,,,,,
,5429,0.5752596259117126,45,,,,,,,,,
0.001,5439,,,,,,,,,,,
,5439,0.5606542229652405,45,,,,,,,,,
0.001,5449,,,,,,,,,,,
,5449,0.6878696084022522,45,,,,,,,,,
0.001,5459,,,,,,,,,,,
,5459,0.6890113949775696,45,,,,,,,,,
,5459,,45,0.7071736454963684,20.602569580078125,4.7851128578186035,2.6140894889831543,13.203367233276367,,,,
0.001,5469,,,,,,,,,,,
,5469,0.5880330204963684,45,,,,,,,,,
0.001,5479,,,,,,,,,,,
,5479,0.5424525141716003,45,,,,,,,,,
0.001,5489,,,,,,,,,,,
,5489,0.7298024892807007,45,,,,,,,,,
0.001,5499,,,,,,,,,,,
,5499,0.7080652117729187,45,,,,,,,,,
0.001,5509,,,,,,,,,,,
,5509,0.6955352425575256,45,,,,,,,,,
0.001,5519,,,,,,,,,,,
,5519,0.5842412710189819,45,,,,,,,,,
,5519,,45,0.7164715528488159,21.776695251464844,5.671245098114014,2.1267168521881104,13.97873306274414,,,,
,5519,,45,,,,,,21.672998428344727,6.154078483581543,3.0544087886810303,12.46451187133789
0.001,5529,,,,,,,,,,,
,5529,0.5585744976997375,46,,,,,,,,,
0.001,5539,,,,,,,,,,,
,5539,0.6299938559532166,46,,,,,,,,,
0.001,5549,,,,,,,,,,,
,5549,0.6549023389816284,46,,,,,,,,,
0.001,5559,,,,,,,,,,,
,5559,0.5686603784561157,46,,,,,,,,,
0.001,5569,,,,,,,,,,,
,5569,0.6671286225318909,46,,,,,,,,,
0.001,5579,,,,,,,,,,,
,5579,0.7639160752296448,46,,,,,,,,,
,5579,,46,0.732092022895813,20.159503936767578,4.497119903564453,2.6362428665161133,13.026141166687012,,,,
0.001,5589,,,,,,,,,,,
,5589,0.7640202641487122,46,,,,,,,,,
0.001,5599,,,,,,,,,,,
,5599,0.6338321566581726,46,,,,,,,,,
0.001,5609,,,,,,,,,,,
,5609,0.6745725274085999,46,,,,,,,,,
0.001,5619,,,,,,,,,,,
,5619,0.7075784802436829,46,,,,,,,,,
0.001,5629,,,,,,,,,,,
,5629,0.770742654800415,46,,,,,,,,,
0.001,5639,,,,,,,,,,,
,5639,0.6557360291481018,46,,,,,,,,,
,5639,,46,0.713782012462616,20.314577102661133,4.696499824523926,2.193176746368408,13.42490005493164,,,,
,5639,,46,,,,,,21.48462677001953,6.235654830932617,2.9879465103149414,12.261026382446289
0.001,5649,,,,,,,,,,,
,5649,0.7210961580276489,47,,,,,,,,,
0.001,5659,,,,,,,,,,,
,5659,0.6268102526664734,47,,,,,,,,,
0.001,5669,,,,,,,,,,,
,5669,0.9555002450942993,47,,,,,,,,,
0.001,5679,,,,,,,,,,,
,5679,0.6504639983177185,47,,,,,,,,,
0.001,5689,,,,,,,,,,,
,5689,0.7953845858573914,47,,,,,,,,,
0.001,5699,,,,,,,,,,,
,5699,0.711574912071228,47,,,,,,,,,
,5699,,47,0.7385801076889038,21.798847198486328,6.1364641189575195,2.0381035804748535,13.624279975891113,,,,
0.001,5709,,,,,,,,,,,
,5709,0.6486795544624329,47,,,,,,,,,
0.001,5719,,,,,,,,,,,
,5719,0.6132510900497437,47,,,,,,,,,
0.001,5729,,,,,,,,,,,
,5729,0.7034609317779541,47,,,,,,,,,
0.001,5739,,,,,,,,,,,
,5739,0.6321443319320679,47,,,,,,,,,
0.001,5749,,,,,,,,,,,
,5749,0.6413862109184265,47,,,,,,,,,
0.001,5759,,,,,,,,,,,
,5759,0.7161707282066345,47,,,,,,,,,
,5759,,47,0.7510985136032104,20.93486976623535,4.386353492736816,2.281790018081665,14.266725540161133,,,,
,5759,,47,,,,,,22.507802963256836,6.35306453704834,3.1240503787994385,13.030688285827637
0.001,5769,,,,,,,,,,,
,5769,0.6733859777450562,48,,,,,,,,,
0.001,5779,,,,,,,,,,,
,5779,0.6659713387489319,48,,,,,,,,,
0.001,5789,,,,,,,,,,,
,5789,0.7230262160301208,48,,,,,,,,,
0.001,5799,,,,,,,,,,,
,5799,0.6503666043281555,48,,,,,,,,,
0.001,5809,,,,,,,,,,,
,5809,0.6734820604324341,48,,,,,,,,,
0.001,5819,,,,,,,,,,,
,5819,0.6538227200508118,48,,,,,,,,,
,5819,,48,0.7020396590232849,19.78289794921875,4.519273281097412,2.4368631839752197,12.826761245727539,,,,
0.001,5829,,,,,,,,,,,
,5829,0.7857540845870972,48,,,,,,,,,
0.001,5839,,,,,,,,,,,
,5839,0.8187087774276733,48,,,,,,,,,
0.001,5849,,,,,,,,,,,
,5849,0.6751842498779297,48,,,,,,,,,
0.001,5859,,,,,,,,,,,
,5859,0.6133644580841064,48,,,,,,,,,
0.001,5869,,,,,,,,,,,
,5869,0.6924266219139099,48,,,,,,,,,
0.001,5879,,,,,,,,,,,
,5879,0.7309340834617615,48,,,,,,,,,
,5879,,48,0.7185984253883362,19.58351707458496,3.8768277168273926,2.74700927734375,12.959680557250977,,,,
,5879,,48,,,,,,21.80073356628418,6.153465747833252,3.075360059738159,12.571907043457031
0.001,5889,,,,,,,,,,,
,5889,0.6920969486236572,49,,,,,,,,,
0.001,5899,,,,,,,,,,,
,5899,0.6755308508872986,49,,,,,,,,,
0.001,5909,,,,,,,,,,,
,5909,0.6388658881187439,49,,,,,,,,,
0.001,5919,,,,,,,,,,,
,5919,0.6086646914482117,49,,,,,,,,,
0.001,5929,,,,,,,,,,,
,5929,0.6252883076667786,49,,,,,,,,,
0.001,5939,,,,,,,,,,,
,5939,0.60015469789505,49,,,,,,,,,
,5939,,49,0.7719154953956604,21.267168045043945,4.585733413696289,2.4147098064422607,14.266725540161133,,,,
0.001,5949,,,,,,,,,,,
,5949,0.7023211121559143,49,,,,,,,,,
0.001,5959,,,,,,,,,,,
,5959,0.6222419738769531,49,,,,,,,,,
0.001,5969,,,,,,,,,,,
,5969,0.5460607409477234,49,,,,,,,,,
0.001,5979,,,,,,,,,,,
,5979,0.6582257151603699,49,,,,,,,,,
0.001,5989,,,,,,,,,,,
,5989,0.6965619921684265,49,,,,,,,,,
0.001,5999,,,,,,,,,,,
,5999,0.6338701248168945,49,,,,,,,,,
,5999,,49,0.763042688369751,22.153301239013672,6.801063537597656,1.8830305337905884,13.469206809997559,,,,
,5999,,49,,,,,,20.262401580810547,5.7808003425598145,2.89521861076355,11.586381912231445
0.001,6009,,,,,,,,,,,
,6009,0.6042516827583313,50,,,,,,,,,
0.001,6019,,,,,,,,,,,
,6019,0.735571563243866,50,,,,,,,,,
0.001,6029,,,,,,,,,,,
,6029,0.7763428688049316,50,,,,,,,,,
0.001,6039,,,,,,,,,,,
,6039,0.68454509973526,50,,,,,,,,,
0.001,6049,,,,,,,,,,,
,6049,0.5793137550354004,50,,,,,,,,,
0.001,6059,,,,,,,,,,,
,6059,0.6143196225166321,50,,,,,,,,,
,6059,,50,0.7102740406990051,20.225963592529297,4.7629594802856445,2.259636640548706,13.203367233276367,,,,
0.001,6069,,,,,,,,,,,
,6069,0.6029789447784424,50,,,,,,,,,
0.001,6079,,,,,,,,,,,
,6079,0.6156821250915527,50,,,,,,,,,
0.001,6089,,,,,,,,,,,
,6089,0.5854355692863464,50,,,,,,,,,
0.001,6099,,,,,,,,,,,
,6099,0.6246035695075989,50,,,,,,,,,
0.001,6109,,,,,,,,,,,
,6109,0.6820822954177856,50,,,,,,,,,
0.001,6119,,,,,,,,,,,
,6119,0.5433544516563416,50,,,,,,,,,
,6119,,50,0.6869409680366516,20.159503936767578,5.715551853179932,2.0159504413604736,12.428001403808594,,,,
,6119,,50,,,,,,20.4287052154541,5.874436855316162,2.9852795600891113,11.568987846374512
0.001,6129,,,,,,,,,,,
,6129,0.6311664581298828,51,,,,,,,,,
0.001,6139,,,,,,,,,,,
,6139,0.6363632082939148,51,,,,,,,,,
0.001,6149,,,,,,,,,,,
,6149,0.47000280022621155,51,,,,,,,,,
0.001,6159,,,,,,,,,,,
,6159,0.6743039488792419,51,,,,,,,,,
0.001,6169,,,,,,,,,,,
,6169,0.5473045706748962,51,,,,,,,,,
0.001,6179,,,,,,,,,,,
,6179,0.5337756872177124,51,,,,,,,,,
,6179,,51,0.7193880081176758,19.915817260742188,4.231280326843262,2.5476295948028564,13.136907577514648,,,,
0.001,6189,,,,,,,,,,,
,6189,0.6323748230934143,51,,,,,,,,,
0.001,6199,,,,,,,,,,,
,6199,0.590790331363678,51,,,,,,,,,
0.001,6209,,,,,,,,,,,
,6209,0.6235002875328064,51,,,,,,,,,
0.001,6219,,,,,,,,,,,
,6219,0.6887573599815369,51,,,,,,,,,
0.001,6229,,,,,,,,,,,
,6229,0.5702114105224609,51,,,,,,,,,
0.001,6239,,,,,,,,,,,
,6239,0.5542811155319214,51,,,,,,,,,
,6239,,51,0.7123936414718628,19.738590240478516,5.427558898925781,1.9494904279708862,12.361541748046875,,,,
,6239,,51,,,,,,19.718677520751953,5.510944843292236,2.9259707927703857,11.28176212310791
0.001,6249,,,,,,,,,,,
,6249,0.5965118408203125,52,,,,,,,,,
0.001,6259,,,,,,,,,,,
,6259,0.6988570690155029,52,,,,,,,,,
0.001,6269,,,,,,,,,,,
,6269,0.6123862266540527,52,,,,,,,,,
0.001,6279,,,,,,,,,,,
,6279,0.7041218876838684,52,,,,,,,,,
0.001,6289,,,,,,,,,,,
,6289,0.5049179196357727,52,,,,,,,,,
0.001,6299,,,,,,,,,,,
,6299,0.6382205486297607,52,,,,,,,,,
,6299,,52,0.704905092716217,19.47275161743164,5.516171932220459,1.7722641229629517,12.18431568145752,,,,
0.001,6309,,,,,,,,,,,
,6309,0.5880184769630432,52,,,,,,,,,
0.001,6319,,,,,,,,,,,
,6319,0.585322916507721,52,,,,,,,,,
0.001,6329,,,,,,,,,,,
,6329,0.6552987098693848,52,,,,,,,,,
0.001,6339,,,,,,,,,,,
,6339,0.5863750576972961,52,,,,,,,,,
0.001,6349,,,,,,,,,,,
,6349,0.5685791969299316,52,,,,,,,,,
0.001,6359,,,,,,,,,,,
,6359,0.6487740874290466,52,,,,,,,,,
,6359,,52,0.6945664286613464,19.317678451538086,3.8546743392944336,2.769162654876709,12.693840980529785,,,,
,6359,,52,,,,,,19.398914337158203,5.611415863037109,2.8539159297943115,10.93358325958252
0.001,6369,,,,,,,,,,,
,6369,0.6347350478172302,53,,,,,,,,,
0.001,6379,,,,,,,,,,,
,6379,0.6171534657478333,53,,,,,,,,,
0.001,6389,,,,,,,,,,,
,6389,0.5559840798377991,53,,,,,,,,,
0.001,6399,,,,,,,,,,,
,6399,0.5766053795814514,53,,,,,,,,,
0.001,6409,,,,,,,,,,,
,6409,0.620003879070282,53,,,,,,,,,
0.001,6419,,,,,,,,,,,
,6419,0.66877281665802,53,,,,,,,,,
,6419,,53,0.7339292764663696,20.159503936767578,5.671245098114014,2.1267168521881104,12.361541748046875,,,,
0.001,6429,,,,,,,,,,,
,6429,0.5993090271949768,53,,,,,,,,,
0.001,6439,,,,,,,,,,,
,6439,0.5352946519851685,53,,,,,,,,,
0.001,6449,,,,,,,,,,,
,6449,0.5841116309165955,53,,,,,,,,,
0.001,6459,,,,,,,,,,,
,6459,0.6233524680137634,53,,,,,,,,,
0.001,6469,,,,,,,,,,,
,6469,0.5505664348602295,53,,,,,,,,,
0.001,6479,,,,,,,,,,,
,6479,0.6542139053344727,53,,,,,,,,,
,6479,,53,0.7204916477203369,19.78289794921875,4.8515729904174805,2.370403289794922,12.560921669006348,,,,
,6479,,53,,,,,,19.82546615600586,5.7472686767578125,2.928605794906616,11.149591445922852
0.001,6489,,,,,,,,,,,
,6489,0.5822065472602844,54,,,,,,,,,
0.001,6499,,,,,,,,,,,
,6499,0.6502484083175659,54,,,,,,,,,
0.001,6509,,,,,,,,,,,
,6509,0.6875649094581604,54,,,,,,,,,
0.001,6519,,,,,,,,,,,
,6519,0.5555731058120728,54,,,,,,,,,
0.001,6529,,,,,,,,,,,
,6529,0.6323831081390381,54,,,,,,,,,
0.001,6539,,,,,,,,,,,
,6539,0.6056256294250488,54,,,,,,,,,
,6539,,54,0.7280281782150269,19.960124969482422,4.8294196128845215,2.326096534729004,12.804608345031738,,,,
0.001,6549,,,,,,,,,,,
,6549,0.5410812497138977,54,,,,,,,,,
0.001,6559,,,,,,,,,,,
,6559,0.5701374411582947,54,,,,,,,,,
0.001,6569,,,,,,,,,,,
,6569,0.5063499808311462,54,,,,,,,,,
0.001,6579,,,,,,,,,,,
,6579,0.7269203066825867,54,,,,,,,,,
0.001,6589,,,,,,,,,,,
,6589,0.4903041124343872,54,,,,,,,,,
0.001,6599,,,,,,,,,,,
,6599,0.6099048852920532,54,,,,,,,,,
,6599,,54,0.6901759505271912,19.517057418823242,3.7882144451141357,2.74700927734375,12.981834411621094,,,,
,6599,,54,,,,,,19.135284423828125,5.491221904754639,2.861273765563965,10.782788276672363
0.001,6609,,,,,,,,,,,
,6609,0.5733205676078796,55,,,,,,,,,
0.001,6619,,,,,,,,,,,
,6619,0.5693613290786743,55,,,,,,,,,
0.001,6629,,,,,,,,,,,
,6629,0.5646052360534668,55,,,,,,,,,
0.001,6639,,,,,,,,,,,
,6639,0.6141771674156189,55,,,,,,,,,
0.001,6649,,,,,,,,,,,
,6649,0.5526996850967407,55,,,,,,,,,
0.001,6659,,,,,,,,,,,
,6659,0.6794793009757996,55,,,,,,,,,
,6659,,55,0.7218690514564514,20.314577102661133,6.09215784072876,1.9716438055038452,12.250775337219238,,,,
0.001,6669,,,,,,,,,,,
,6669,0.5866560339927673,55,,,,,,,,,
0.001,6679,,,,,,,,,,,
,6679,0.5184867978096008,55,,,,,,,,,
0.001,6689,,,,,,,,,,,
,6689,0.5439384579658508,55,,,,,,,,,
0.001,6699,,,,,,,,,,,
,6699,0.5845291018486023,55,,,,,,,,,
0.001,6709,,,,,,,,,,,
,6709,0.5898454189300537,55,,,,,,,,,
0.001,6719,,,,,,,,,,,
,6719,0.6888965368270874,55,,,,,,,,,
,6719,,55,0.7191447019577026,19.361984252929688,5.050952434539795,2.237483501434326,12.073549270629883,,,,
,6719,,55,,,,,,18.499435424804688,5.272366523742676,2.752596855163574,10.474472045898438
0.001,6729,,,,,,,,,,,
,6729,0.6587963104248047,56,,,,,,,,,
0.001,6739,,,,,,,,,,,
,6739,0.48808667063713074,56,,,,,,,,,
0.001,6749,,,,,,,,,,,
,6749,0.5395405292510986,56,,,,,,,,,
0.001,6759,,,,,,,,,,,
,6759,0.5270117521286011,56,,,,,,,,,
0.001,6769,,,,,,,,,,,
,6769,0.4714258909225464,56,,,,,,,,,
0.001,6779,,,,,,,,,,,
,6779,0.5138519406318665,56,,,,,,,,,
,6779,,56,0.7351359724998474,19.871511459350586,4.652193069458008,2.326096534729004,12.893220901489258,,,,
0.001,6789,,,,,,,,,,,
,6789,0.5369452834129333,56,,,,,,,,,
0.001,6799,,,,,,,,,,,
,6799,0.6004773378372192,56,,,,,,,,,
0.001,6809,,,,,,,,,,,
,6809,0.6175270676612854,56,,,,,,,,,
0.001,6819,,,,,,,,,,,
,6819,0.5679327845573425,56,,,,,,,,,
0.001,6829,,,,,,,,,,,
,6829,0.5440704822540283,56,,,,,,,,,
0.001,6839,,,,,,,,,,,
,6839,0.5832371115684509,56,,,,,,,,,
,6839,,56,0.6995314955711365,19.361984252929688,4.408506870269775,2.5697829723358154,12.383695602416992,,,,
,6839,,56,,,,,,17.884389877319336,4.981785774230957,2.8221871852874756,10.08041763305664
0.001,6849,,,,,,,,,,,
,6849,0.59001624584198,57,,,,,,,,,
0.001,6859,,,,,,,,,,,
,6859,0.4984990954399109,57,,,,,,,,,
0.001,6869,,,,,,,,,,,
,6869,0.5734719038009644,57,,,,,,,,,
0.001,6879,,,,,,,,,,,
,6879,0.6470071077346802,57,,,,,,,,,
0.001,6889,,,,,,,,,,,
,6889,0.49339115619659424,57,,,,,,,,,
0.001,6899,,,,,,,,,,,
,6899,0.5382899045944214,57,,,,,,,,,
,6899,,57,0.7541999816894531,20.070890426635742,4.386353492736816,2.171023368835449,13.513513565063477,,,,
0.001,6909,,,,,,,,,,,
,6909,0.5388306975364685,57,,,,,,,,,
0.001,6919,,,,,,,,,,,
,6919,0.4784257411956787,57,,,,,,,,,
0.001,6929,,,,,,,,,,,
,6929,0.714256227016449,57,,,,,,,,,
0.001,6939,,,,,,,,,,,
,6939,0.7171816229820251,57,,,,,,,,,
0.001,6949,,,,,,,,,,,
,6949,0.6775761246681213,57,,,,,,,,,
0.001,6959,,,,,,,,,,,
,6959,0.671592116355896,57,,,,,,,,,
,6959,,57,0.7256119847297668,20.048736572265625,4.630039691925049,2.835622549057007,12.583074569702148,,,,
,6959,,57,,,,,,17.96234893798828,5.142329692840576,2.8410890102386475,9.97892951965332
0.001,6969,,,,,,,,,,,
,6969,0.504758358001709,58,,,,,,,,,
0.001,6979,,,,,,,,,,,
,6979,0.4952423870563507,58,,,,,,,,,
0.001,6989,,,,,,,,,,,
,6989,0.520563542842865,58,,,,,,,,,
0.001,6999,,,,,,,,,,,
,6999,0.5455788969993591,58,,,,,,,,,
0.001,7009,,,,,,,,,,,
,7009,0.622635543346405,58,,,,,,,,,
0.001,7019,,,,,,,,,,,
,7019,0.4947749078273773,58,,,,,,,,,
,7019,,58,0.7621800303459167,20.159503936767578,6.09215784072876,2.0159504413604736,12.051395416259766,,,,
0.001,7029,,,,,,,,,,,
,7029,0.5656028389930725,58,,,,,,,,,
0.001,7039,,,,,,,,,,,
,7039,0.6652212142944336,58,,,,,,,,,
0.001,7049,,,,,,,,,,,
,7049,0.5512076020240784,58,,,,,,,,,
0.001,7059,,,,,,,,,,,
,7059,0.4941193163394928,58,,,,,,,,,
0.001,7069,,,,,,,,,,,
,7069,0.6152944564819336,58,,,,,,,,,
0.001,7079,,,,,,,,,,,
,7079,0.501056969165802,58,,,,,,,,,
,7079,,58,0.7635693550109863,19.47275161743164,3.256535291671753,2.9685423374176025,13.247673988342285,,,,
,7079,,58,,,,,,18.245037078857422,5.395952224731445,2.890836715698242,9.958248138427734
0.001,7089,,,,,,,,,,,
,7089,0.5117332935333252,59,,,,,,,,,
0.001,7099,,,,,,,,,,,
,7099,0.5295133590698242,59,,,,,,,,,
0.001,7109,,,,,,,,,,,
,7109,0.6186496019363403,59,,,,,,,,,
0.001,7119,,,,,,,,,,,
,7119,0.5142196416854858,59,,,,,,,,,
0.001,7129,,,,,,,,,,,
,7129,0.6111218333244324,59,,,,,,,,,
0.001,7139,,,,,,,,,,,
,7139,0.5286416411399841,59,,,,,,,,,
,7139,,59,0.7248181104660034,20.225963592529297,4.297740459442139,2.857775926589966,13.07044792175293,,,,
0.001,7149,,,,,,,,,,,
,7149,0.4642930328845978,59,,,,,,,,,
0.001,7159,,,,,,,,,,,
,7159,0.5329761505126953,59,,,,,,,,,
0.001,7169,,,,,,,,,,,
,7169,0.513957142829895,59,,,,,,,,,
0.001,7179,,,,,,,,,,,
,7179,0.4687332510948181,59,,,,,,,,,
0.001,7189,,,,,,,,,,,
,7189,0.5609510540962219,59,,,,,,,,,
0.001,7199,,,,,,,,,,,
,7199,0.4389887750148773,59,,,,,,,,,
,7199,,59,0.7189589738845825,18.830305099487305,3.300841808319092,3.256535291671753,12.272928237915039,,,,
,7199,,59,,,,,,17.19095802307129,5.076616287231445,2.730708360671997,9.38363265991211
0.001,7209,,,,,,,,,,,
,7209,0.4562526345252991,60,,,,,,,,,
0.001,7219,,,,,,,,,,,
,7219,0.40427762269973755,60,,,,,,,,,
0.001,7229,,,,,,,,,,,
,7229,0.43565696477890015,60,,,,,,,,,
0.001,7239,,,,,,,,,,,
,7239,0.48504379391670227,60,,,,,,,,,
0.001,7249,,,,,,,,,,,
,7249,0.5034874081611633,60,,,,,,,,,
0.001,7259,,,,,,,,,,,
,7259,0.49644094705581665,60,,,,,,,,,
,7259,,60,0.7345983982086182,18.56446647644043,4.652193069458008,1.9273371696472168,11.984935760498047,,,,
0.001,7269,,,,,,,,,,,
,7269,0.43290114402770996,60,,,,,,,,,
0.001,7279,,,,,,,,,,,
,7279,0.5387746691703796,60,,,,,,,,,
0.001,7289,,,,,,,,,,,
,7289,0.6865447163581848,60,,,,,,,,,
0.001,7299,,,,,,,,,,,
,7299,0.6560877561569214,60,,,,,,,,,
0.001,7309,,,,,,,,,,,
,7309,0.4774824380874634,60,,,,,,,,,
0.001,7319,,,,,,,,,,,
,7319,0.5174387693405151,60,,,,,,,,,
,7319,,60,0.7223846316337585,19.871511459350586,4.585733413696289,2.237483501434326,13.048294067382812,,,,
,7319,,60,,,,,,16.715953826904297,4.844367027282715,2.712405204772949,9.159181594848633
0.001,7329,,,,,,,,,,,
,7329,0.5364626049995422,61,,,,,,,,,
0.001,7339,,,,,,,,,,,
,7339,0.5774456858634949,61,,,,,,,,,
0.001,7349,,,,,,,,,,,
,7349,0.5852595567703247,61,,,,,,,,,
0.001,7359,,,,,,,,,,,
,7359,0.5554898381233215,61,,,,,,,,,
0.001,7369,,,,,,,,,,,
,7369,0.45284390449523926,61,,,,,,,,,
0.001,7379,,,,,,,,,,,
,7379,0.5313361287117004,61,,,,,,,,,
,7379,,61,0.7598119974136353,20.602569580078125,6.535223960876465,1.5728843212127686,12.494462013244629,,,,
0.001,7389,,,,,,,,,,,
,7389,0.4377794861793518,61,,,,,,,,,
0.001,7399,,,,,,,,,,,
,7399,0.6763280630111694,61,,,,,,,,,
0.001,7409,,,,,,,,,,,
,7409,0.5427177548408508,61,,,,,,,,,
0.001,7419,,,,,,,,,,,
,7419,0.5364996790885925,61,,,,,,,,,
0.001,7429,,,,,,,,,,,
,7429,0.6331956386566162,61,,,,,,,,,
0.001,7439,,,,,,,,,,,
,7439,0.5427634716033936,61,,,,,,,,,
,7439,,61,0.7206323742866516,19.450597763061523,4.342046737670898,2.259636640548706,12.84891414642334,,,,
,7439,,61,,,,,,17.163331985473633,5.116073131561279,2.9398744106292725,9.10738468170166
0.001,7449,,,,,,,,,,,
,7449,0.5033372640609741,62,,,,,,,,,
0.001,7459,,,,,,,,,,,
,7459,0.4185625910758972,62,,,,,,,,,
0.001,7469,,,,,,,,,,,
,7469,0.43277138471603394,62,,,,,,,,,
0.001,7479,,,,,,,,,,,
,7479,0.5352517366409302,62,,,,,,,,,
0.001,7489,,,,,,,,,,,
,7489,0.5720552802085876,62,,,,,,,,,
0.001,7499,,,,,,,,,,,
,7499,0.5716241598129272,62,,,,,,,,,
,7499,,62,0.7497878074645996,18.87461280822754,3.699601173400879,2.724855899810791,12.450155258178711,,,,
0.001,7509,,,,,,,,,,,
,7509,0.48950257897377014,62,,,,,,,,,
0.001,7519,,,,,,,,,,,
,7519,0.4724304974079132,62,,,,,,,,,
0.001,7529,,,,,,,,,,,
,7529,0.5465838313102722,62,,,,,,,,,
0.001,7539,,,,,,,,,,,
,7539,0.4746764004230499,62,,,,,,,,,
0.001,7549,,,,,,,,,,,
,7549,0.4921240210533142,62,,,,,,,,,
0.001,7559,,,,,,,,,,,
,7559,0.5033668875694275,62,,,,,,,,,
,7559,,62,0.7109378576278687,19.450597763061523,4.452813625335693,2.348249912261963,12.649535179138184,,,,
,7559,,62,,,,,,16.63499641418457,4.84137487411499,2.727748394012451,9.065873146057129
0.001,7569,,,,,,,,,,,
,7569,0.4022497236728668,63,,,,,,,,,
0.001,7579,,,,,,,,,,,
,7579,0.4630252420902252,63,,,,,,,,,
0.001,7589,,,,,,,,,,,
,7589,0.48959898948669434,63,,,,,,,,,
0.001,7599,,,,,,,,,,,
,7599,0.4660934805870056,63,,,,,,,,,
0.001,7609,,,,,,,,,,,
,7609,0.6218957901000977,63,,,,,,,,,
0.001,7619,,,,,,,,,,,
,7619,0.5001171827316284,63,,,,,,,,,
,7619,,63,0.7300705909729004,19.073991775512695,5.560478687286377,1.9716438055038452,11.5418701171875,,,,
0.001,7629,,,,,,,,,,,
,7629,0.5045369267463684,63,,,,,,,,,
0.001,7639,,,,,,,,,,,
,7639,0.5218491554260254,63,,,,,,,,,
0.001,7649,,,,,,,,,,,
,7649,0.4888606071472168,63,,,,,,,,,
0.001,7659,,,,,,,,,,,
,7659,0.6074060201644897,63,,,,,,,,,
0.001,7669,,,,,,,,,,,
,7669,0.4474951922893524,63,,,,,,,,,
0.001,7679,,,,,,,,,,,
,7679,0.5646669268608093,63,,,,,,,,,
,7679,,63,0.7424413561820984,19.384138107299805,4.054054260253906,2.6362428665161133,12.693840980529785,,,,
,7679,,63,,,,,,16.13642692565918,4.890913963317871,2.765810489654541,8.47970199584961
0.001,7689,,,,,,,,,,,
,7689,0.4919942617416382,64,,,,,,,,,
0.001,7699,,,,,,,,,,,
,7699,0.444386750459671,64,,,,,,,,,
0.001,7709,,,,,,,,,,,
,7709,0.5146395564079285,64,,,,,,,,,
0.001,7719,,,,,,,,,,,
,7719,0.4285615086555481,64,,,,,,,,,
0.001,7729,,,,,,,,,,,
,7729,0.425113707780838,64,,,,,,,,,
0.001,7739,,,,,,,,,,,
,7739,0.5629096627235413,64,,,,,,,,,
,7739,,64,0.716822624206543,18.941072463989258,4.430660247802734,2.1488702297210693,12.361541748046875,,,,
0.001,7749,,,,,,,,,,,
,7749,0.5321323871612549,64,,,,,,,,,
0.001,7759,,,,,,,,,,,
,7759,0.5598297715187073,64,,,,,,,,,
0.001,7769,,,,,,,,,,,
,7769,0.4204592704772949,64,,,,,,,,,
0.001,7779,,,,,,,,,,,
,7779,0.485073447227478,64,,,,,,,,,
0.001,7789,,,,,,,,,,,
,7789,0.46106672286987305,64,,,,,,,,,
0.001,7799,,,,,,,,,,,
,7799,0.57140052318573,64,,,,,,,,,
,7799,,64,0.7651883959770203,20.115196228027344,5.449711799621582,1.6836508512496948,12.981834411621094,,,,
,7799,,64,,,,,,15.683306694030762,4.635643005371094,2.7739555835723877,8.27370834350586
0.001,7809,,,,,,,,,,,
,7809,0.43394243717193604,65,,,,,,,,,
0.001,7819,,,,,,,,,,,
,7819,0.48470619320869446,65,,,,,,,,,
0.001,7829,,,,,,,,,,,
,7829,0.41961178183555603,65,,,,,,,,,
0.001,7839,,,,,,,,,,,
,7839,0.5901694893836975,65,,,,,,,,,
0.001,7849,,,,,,,,,,,
,7849,0.47097310423851013,65,,,,,,,,,
0.001,7859,,,,,,,,,,,
,7859,0.4171414375305176,65,,,,,,,,,
,7859,,65,0.7773655652999878,19.53921127319336,3.7660610675811768,2.702702760696411,13.07044792175293,,,,
0.001,7869,,,,,,,,,,,
,7869,0.3885481059551239,65,,,,,,,,,
0.001,7879,,,,,,,,,,,
,7879,0.38401085138320923,65,,,,,,,,,
0.001,7889,,,,,,,,,,,
,7889,0.5880808234214783,65,,,,,,,,,
0.001,7899,,,,,,,,,,,
,7899,0.4867909848690033,65,,,,,,,,,
0.001,7909,,,,,,,,,,,
,7909,0.43376773595809937,65,,,,,,,,,
0.001,7919,,,,,,,,,,,
,7919,0.39123132824897766,65,,,,,,,,,
,7919,,65,0.7607390880584717,18.56446647644043,4.585733413696289,2.303943395614624,11.674789428710938,,,,
,7919,,65,,,,,,15.379654884338379,4.6884002685546875,2.6151862144470215,8.076067924499512
0.001,7929,,,,,,,,,,,
,7929,0.4088584780693054,66,,,,,,,,,
0.001,7939,,,,,,,,,,,
,7939,0.47418880462646484,66,,,,,,,,,
0.001,7949,,,,,,,,,,,
,7949,0.47622209787368774,66,,,,,,,,,
0.001,7959,,,,,,,,,,,
,7959,0.4174543619155884,66,,,,,,,,,
0.001,7969,,,,,,,,,,,
,7969,0.4972347021102905,66,,,,,,,,,
0.001,7979,,,,,,,,,,,
,7979,0.4795312285423279,66,,,,,,,,,
,7979,,66,0.8037661910057068,19.47275161743164,5.073105812072754,1.9716438055038452,12.428001403808594,,,,
0.001,7989,,,,,,,,,,,
,7989,0.47678160667419434,66,,,,,,,,,
0.001,7999,,,,,,,,,,,
,7999,0.5227549076080322,66,,,,,,,,,
0.001,8009,,,,,,,,,,,
,8009,0.43052563071250916,66,,,,,,,,,
0.001,8019,,,,,,,,,,,
,8019,0.5448894500732422,66,,,,,,,,,
0.001,8029,,,,,,,,,,,
,8029,0.5066658854484558,66,,,,,,,,,
0.001,8039,,,,,,,,,,,
,8039,0.5439998507499695,66,,,,,,,,,
,8039,,66,0.7504571676254272,18.67523193359375,4.164820671081543,2.4590163230895996,12.051395416259766,,,,
,8039,,66,,,,,,15.808869361877441,4.836026191711426,2.715709924697876,8.257133483886719
0.001,8049,,,,,,,,,,,
,8049,0.49198010563850403,67,,,,,,,,,
0.001,8059,,,,,,,,,,,
,8059,0.4683729410171509,67,,,,,,,,,
0.001,8069,,,,,,,,,,,
,8069,0.4060578942298889,67,,,,,,,,,
0.001,8079,,,,,,,,,,,
,8079,0.4296402633190155,67,,,,,,,,,
0.001,8089,,,,,,,,,,,
,8089,0.38382360339164734,67,,,,,,,,,
0.001,8099,,,,,,,,,,,
,8099,0.36506187915802,67,,,,,,,,,
,8099,,67,0.7671910524368286,17.789100646972656,3.3673017024993896,2.680549383163452,11.741249084472656,,,,
0.001,8109,,,,,,,,,,,
,8109,0.4047394394874573,67,,,,,,,,,
0.001,8119,,,,,,,,,,,
,8119,0.5071347951889038,67,,,,,,,,,
0.001,8129,,,,,,,,,,,
,8129,0.488247811794281,67,,,,,,,,,
0.001,8139,,,,,,,,,,,
,8139,0.4275607764720917,67,,,,,,,,,
0.001,8149,,,,,,,,,,,
,8149,0.5000609159469604,67,,,,,,,,,
0.001,8159,,,,,,,,,,,
,8159,0.5085920095443726,67,,,,,,,,,
,8159,,67,0.7328885793685913,17.6340274810791,2.74700927734375,3.145768642425537,11.741249084472656,,,,
,8159,,67,,,,,,14.964690208435059,4.68837833404541,2.723345994949341,7.55296516418457
0.001,8169,,,,,,,,,,,
,8169,0.4838832914829254,68,,,,,,,,,
0.001,8179,,,,,,,,,,,
,8179,0.46005791425704956,68,,,,,,,,,
0.001,8189,,,,,,,,,,,
,8189,0.5981126427650452,68,,,,,,,,,
0.001,8199,,,,,,,,,,,
,8199,0.47058361768722534,68,,,,,,,,,
0.001,8209,,,,,,,,,,,
,8209,0.4462813436985016,68,,,,,,,,,
0.001,8219,,,,,,,,,,,
,8219,0.4947311282157898,68,,,,,,,,,
,8219,,68,0.7502548098564148,18.36508560180664,4.031900882720947,2.3925564289093018,11.940629005432129,,,,
0.001,8229,,,,,,,,,,,
,8229,0.4657905399799347,68,,,,,,,,,
0.001,8239,,,,,,,,,,,
,8239,0.4298870265483856,68,,,,,,,,,
0.001,8249,,,,,,,,,,,
,8249,0.3946916460990906,68,,,,,,,,,
0.001,8259,,,,,,,,,,,
,8259,0.483621209859848,68,,,,,,,,,
0.001,8269,,,,,,,,,,,
,8269,0.49497002363204956,68,,,,,,,,,
0.001,8279,,,,,,,,,,,
,8279,0.3788735270500183,68,,,,,,,,,
,8279,,68,0.8248642086982727,19.805051803588867,5.095259189605713,2.0602569580078125,12.649535179138184,,,,
,8279,,68,,,,,,15.013883590698242,4.65730094909668,2.793280839920044,7.563302516937256
0.001,8289,,,,,,,,,,,
,8289,0.5349072813987732,69,,,,,,,,,
0.001,8299,,,,,,,,,,,
,8299,0.5436941385269165,69,,,,,,,,,
0.001,8309,,,,,,,,,,,
,8309,0.3740697503089905,69,,,,,,,,,
0.001,8319,,,,,,,,,,,
,8319,0.4643856883049011,69,,,,,,,,,
0.001,8329,,,,,,,,,,,
,8329,0.4174974858760834,69,,,,,,,,,
0.001,8339,,,,,,,,,,,
,8339,0.40016868710517883,69,,,,,,,,,
,8339,,69,0.7785894870758057,19.16260528564453,4.319893836975098,2.259636640548706,12.583074569702148,,,,
0.001,8349,,,,,,,,,,,
,8349,0.39286908507347107,69,,,,,,,,,
0.001,8359,,,,,,,,,,,
,8359,0.48846179246902466,69,,,,,,,,,
0.001,8369,,,,,,,,,,,
,8369,0.4459865689277649,69,,,,,,,,,
0.001,8379,,,,,,,,,,,
,8379,0.4505673944950104,69,,,,,,,,,
0.001,8389,,,,,,,,,,,
,8389,0.5148111581802368,69,,,,,,,,,
0.001,8399,,,,,,,,,,,
,8399,0.4871199131011963,69,,,,,,,,,
,8399,,69,0.764008641242981,18.49800682067871,3.256535291671753,2.769162654876709,12.472308158874512,,,,
,8399,,69,,,,,,15.100065231323242,4.6563591957092285,2.710232734680176,7.733473300933838
0.001,8409,,,,,,,,,,,
,8409,0.4660925269126892,70,,,,,,,,,
0.001,8419,,,,,,,,,,,
,8419,0.48549991846084595,70,,,,,,,,,
0.001,8429,,,,,,,,,,,
,8429,0.4021238386631012,70,,,,,,,,,
0.001,8439,,,,,,,,,,,
,8439,0.3941445052623749,70,,,,,,,,,
0.001,8449,,,,,,,,,,,
,8449,0.45585551857948303,70,,,,,,,,,
0.001,8459,,,,,,,,,,,
,8459,0.4220789968967438,70,,,,,,,,,
,8459,,70,0.7899825572967529,18.91891860961914,5.183872222900391,1.8830305337905884,11.852015495300293,,,,
0.001,8469,,,,,,,,,,,
,8469,0.4787655472755432,70,,,,,,,,,
0.001,8479,,,,,,,,,,,
,8479,0.46836352348327637,70,,,,,,,,,
0.001,8489,,,,,,,,,,,
,8489,0.4948768615722656,70,,,,,,,,,
0.001,8499,,,,,,,,,,,
,8499,0.42375317215919495,70,,,,,,,,,
0.001,8509,,,,,,,,,,,
,8509,0.6274988055229187,70,,,,,,,,,
0.001,8519,,,,,,,,,,,
,8519,0.4134434163570404,70,,,,,,,,,
,8519,,70,0.7683536410331726,19.450597763061523,4.8294196128845215,1.9494904279708862,12.671688079833984,,,,
,8519,,70,,,,,,14.446921348571777,4.329397678375244,2.715162515640259,7.4023613929748535
0.001,8529,,,,,,,,,,,
,8529,0.3322019577026367,71,,,,,,,,,
0.001,8539,,,,,,,,,,,
,8539,0.5338683724403381,71,,,,,,,,,
0.001,8549,,,,,,,,,,,
,8549,0.5066653490066528,71,,,,,,,,,
0.001,8559,,,,,,,,,,,
,8559,0.5551382899284363,71,,,,,,,,,
0.001,8569,,,,,,,,,,,
,8569,0.4346967339515686,71,,,,,,,,,
0.001,8579,,,,,,,,,,,
,8579,0.39338216185569763,71,,,,,,,,,
,8579,,71,0.7924706935882568,18.830305099487305,3.633141279220581,2.724855899810791,12.472308158874512,,,,
0.001,8589,,,,,,,,,,,
,8589,0.4714200496673584,71,,,,,,,,,
0.001,8599,,,,,,,,,,,
,8599,0.44128260016441345,71,,,,,,,,,
0.001,8609,,,,,,,,,,,
,8609,0.45134755969047546,71,,,,,,,,,
0.001,8619,,,,,,,,,,,
,8619,0.509817361831665,71,,,,,,,,,
0.001,8629,,,,,,,,,,,
,8629,0.4740142524242401,71,,,,,,,,,
0.001,8639,,,,,,,,,,,
,8639,0.5379956960678101,71,,,,,,,,,
,8639,,71,0.8186420798301697,20.491804122924805,5.095259189605713,2.370403289794922,13.026141166687012,,,,
,8639,,71,,,,,,14.299866676330566,4.433192729949951,2.6513848304748535,7.215289115905762
0.001,8649,,,,,,,,,,,
,8649,0.4158035218715668,72,,,,,,,,,
0.001,8659,,,,,,,,,,,
,8659,0.3564646542072296,72,,,,,,,,,
0.001,8669,,,,,,,,,,,
,8669,0.4741198420524597,72,,,,,,,,,
0.001,8679,,,,,,,,,,,
,8679,0.40696951746940613,72,,,,,,,,,
0.001,8689,,,,,,,,,,,
,8689,0.4185377061367035,72,,,,,,,,,
0.001,8699,,,,,,,,,,,
,8699,0.38951119780540466,72,,,,,,,,,
,8699,,72,0.82741379737854,19.937971115112305,4.098360538482666,2.9020824432373047,12.937527656555176,,,,
0.001,8709,,,,,,,,,,,
,8709,0.33237868547439575,72,,,,,,,,,
0.001,8719,,,,,,,,,,,
,8719,0.4227249324321747,72,,,,,,,,,
0.001,8729,,,,,,,,,,,
,8729,0.49783816933631897,72,,,,,,,,,
0.001,8739,,,,,,,,,,,
,8739,0.4720846116542816,72,,,,,,,,,
0.001,8749,,,,,,,,,,,
,8749,0.4154037535190582,72,,,,,,,,,
0.001,8759,,,,,,,,,,,
,8759,0.4056806266307831,72,,,,,,,,,
,8759,,72,0.80235356092453,19.406291961669922,5.914931297302246,2.1267168521881104,11.364643096923828,,,,
,8759,,72,,,,,,13.960518836975098,4.318056106567383,2.718111515045166,6.924351215362549
0.001,8769,,,,,,,,,,,
,8769,0.3909487724304199,73,,,,,,,,,
0.001,8779,,,,,,,,,,,
,8779,0.3539392650127411,73,,,,,,,,,
0.001,8789,,,,,,,,,,,
,8789,0.5129806399345398,73,,,,,,,,,
0.001,8799,,,,,,,,,,,
,8799,0.49005499482154846,73,,,,,,,,,
0.001,8809,,,,,,,,,,,
,8809,0.4465778172016144,73,,,,,,,,,
0.001,8819,,,,,,,,,,,
,8819,0.48118123412132263,73,,,,,,,,,
,8819,,73,0.7700400948524475,18.60877227783203,4.142667293548584,2.5697829723358154,11.896322250366211,,,,
0.001,8829,,,,,,,,,,,
,8829,0.4368795156478882,73,,,,,,,,,
0.001,8839,,,,,,,,,,,
,8839,0.3487538695335388,73,,,,,,,,,
0.001,8849,,,,,,,,,,,
,8849,0.4426824152469635,73,,,,,,,,,
0.001,8859,,,,,,,,,,,
,8859,0.41195744276046753,73,,,,,,,,,
0.001,8869,,,,,,,,,,,
,8869,0.44129130244255066,73,,,,,,,,,
0.001,8879,,,,,,,,,,,
,8879,0.41653457283973694,73,,,,,,,,,
,8879,,73,0.7643561959266663,18.409393310546875,5.139565944671631,1.8165706396102905,11.453256607055664,,,,
,8879,,73,,,,,,14.214515686035156,4.3805999755859375,2.679717779159546,7.154197692871094
0.001,8889,,,,,,,,,,,
,8889,0.5615528225898743,74,,,,,,,,,
0.001,8899,,,,,,,,,,,
,8899,0.3716464340686798,74,,,,,,,,,
0.001,8909,,,,,,,,,,,
,8909,0.503853440284729,74,,,,,,,,,
0.001,8919,,,,,,,,,,,
,8919,0.4679034948348999,74,,,,,,,,,
0.001,8929,,,,,,,,,,,
,8929,0.5339387059211731,74,,,,,,,,,
0.001,8939,,,,,,,,,,,
,8939,0.4167608320713043,74,,,,,,,,,
,8939,,74,0.8218042850494385,18.520158767700195,3.3451483249664307,2.4147098064422607,12.76030158996582,,,,
0.001,8949,,,,,,,,,,,
,8949,0.47048577666282654,74,,,,,,,,,
0.001,8959,,,,,,,,,,,
,8959,0.5341782569885254,74,,,,,,,,,
0.001,8969,,,,,,,,,,,
,8969,0.4412299394607544,74,,,,,,,,,
0.001,8979,,,,,,,,,,,
,8979,0.3613157272338867,74,,,,,,,,,
0.001,8989,,,,,,,,,,,
,8989,0.41918817162513733,74,,,,,,,,,
0.001,8999,,,,,,,,,,,
,8999,0.4525693356990814,74,,,,,,,,,
,8999,,74,0.7934380173683167,19.494905471801758,4.364200115203857,2.5697829723358154,12.560921669006348,,,,
,8999,,74,,,,,,13.91270923614502,4.372801303863525,2.6660070419311523,6.873900413513184
0.001,9009,,,,,,,,,,,
,9009,0.38855162262916565,75,,,,,,,,,
0.001,9019,,,,,,,,,,,
,9019,0.36225971579551697,75,,,,,,,,,
0.001,9029,,,,,,,,,,,
,9029,0.421250581741333,75,,,,,,,,,
0.001,9039,,,,,,,,,,,
,9039,0.4525071084499359,75,,,,,,,,,
0.001,9049,,,,,,,,,,,
,9049,0.46731698513031006,75,,,,,,,,,
0.001,9059,,,,,,,,,,,
,9059,0.4254729747772217,75,,,,,,,,,
,9059,,75,0.7802227139472961,18.91891860961914,4.740806579589844,2.259636640548706,11.918476104736328,,,,
0.001,9069,,,,,,,,,,,
,9069,0.38502588868141174,75,,,,,,,,,
0.001,9079,,,,,,,,,,,
,9079,0.5227155685424805,75,,,,,,,,,
0.001,9089,,,,,,,,,,,
,9089,0.37514060735702515,75,,,,,,,,,
0.001,9099,,,,,,,,,,,
,9099,0.40579813718795776,75,,,,,,,,,
0.001,9109,,,,,,,,,,,
,9109,0.45961329340934753,75,,,,,,,,,
0.001,9119,,,,,,,,,,,
,9119,0.43566298484802246,75,,,,,,,,,
,9119,,75,0.8042396903038025,19.251218795776367,4.319893836975098,2.237483501434326,12.693840980529785,,,,
,9119,,75,,,,,,13.556429862976074,4.235352516174316,2.622671127319336,6.69840669631958
0.001,9129,,,,,,,,,,,
,9129,0.47866421937942505,76,,,,,,,,,
0.001,9139,,,,,,,,,,,
,9139,0.31411212682724,76,,,,,,,,,
0.001,9149,,,,,,,,,,,
,9149,0.32388752698898315,76,,,,,,,,,
0.001,9159,,,,,,,,,,,
,9159,0.437566339969635,76,,,,,,,,,
0.001,9169,,,,,,,,,,,
,9169,0.385978102684021,76,,,,,,,,,
0.001,9179,,,,,,,,,,,
,9179,0.3785139322280884,76,,,,,,,,,
,9179,,76,0.7131226658821106,17.966327667236328,5.2946391105651855,1.9051839113235474,10.766504287719727,,,,
0.001,9189,,,,,,,,,,,
,9189,0.3953463137149811,76,,,,,,,,,
0.001,9199,,,,,,,,,,,
,9199,0.4511735439300537,76,,,,,,,,,
0.001,9209,,,,,,,,,,,
,9209,0.3141970634460449,76,,,,,,,,,
0.001,9219,,,,,,,,,,,
,9219,0.3845333755016327,76,,,,,,,,,
0.001,9229,,,,,,,,,,,
,9229,0.37743207812309265,76,,,,,,,,,
0.001,9239,,,,,,,,,,,
,9239,0.42232006788253784,76,,,,,,,,,
,9239,,76,0.7848687171936035,18.409393310546875,4.231280326843262,2.5033230781555176,11.674789428710938,,,,
,9239,,76,,,,,,12.953460693359375,4.085944652557373,2.5698370933532715,6.297678470611572
0.001,9249,,,,,,,,,,,
,9249,0.4205722212791443,77,,,,,,,,,
0.001,9259,,,,,,,,,,,
,9259,0.34348440170288086,77,,,,,,,,,
0.001,9269,,,,,,,,,,,
,9269,0.27947622537612915,77,,,,,,,,,
0.001,9279,,,,,,,,,,,
,9279,0.3480030596256256,77,,,,,,,,,
0.001,9289,,,,,,,,,,,
,9289,0.4151565730571747,77,,,,,,,,,
0.001,9299,,,,,,,,,,,
,9299,0.3638707101345062,77,,,,,,,,,
,9299,,77,0.7819417715072632,18.276473999023438,3.610988140106201,2.326096534729004,12.339388847351074,,,,
0.001,9309,,,,,,,,,,,
,9309,0.5321797132492065,77,,,,,,,,,
0.001,9319,,,,,,,,,,,
,9319,0.3562188446521759,77,,,,,,,,,
0.001,9329,,,,,,,,,,,
,9329,0.5140753388404846,77,,,,,,,,,
0.001,9339,,,,,,,,,,,
,9339,0.29231956601142883,77,,,,,,,,,
0.001,9349,,,,,,,,,,,
,9349,0.4506950378417969,77,,,,,,,,,
0.001,9359,,,,,,,,,,,
,9359,0.4902953505516052,77,,,,,,,,,
,9359,,77,0.826675534248352,18.409393310546875,3.9211342334747314,2.303943395614624,12.18431568145752,,,,
,9359,,77,,,,,,12.426750183105469,3.9990668296813965,2.510052442550659,5.917630672454834
0.001,9369,,,,,,,,,,,
,9369,0.4013580083847046,78,,,,,,,,,
0.001,9379,,,,,,,,,,,
,9379,0.4039421081542969,78,,,,,,,,,
0.001,9389,,,,,,,,,,,
,9389,0.3695191442966461,78,,,,,,,,,
0.001,9399,,,,,,,,,,,
,9399,0.34899941086769104,78,,,,,,,,,
0.001,9409,,,,,,,,,,,
,9409,0.45990222692489624,78,,,,,,,,,
0.001,9419,,,,,,,,,,,
,9419,0.39023810625076294,78,,,,,,,,,
,9419,,78,0.7876162528991699,18.36508560180664,3.7882144451141357,2.5254762172698975,12.051395416259766,,,,
0.001,9429,,,,,,,,,,,
,9429,0.3046893775463104,78,,,,,,,,,
0.001,9439,,,,,,,,,,,
,9439,0.41039639711380005,78,,,,,,,,,
0.001,9449,,,,,,,,,,,
,9449,0.35326358675956726,78,,,,,,,,,
0.001,9459,,,,,,,,,,,
,9459,0.48586466908454895,78,,,,,,,,,
0.001,9469,,,,,,,,,,,
,9469,0.3674517571926117,78,,,,,,,,,
0.001,9479,,,,,,,,,,,
,9479,0.36034727096557617,78,,,,,,,,,
,9479,,78,0.7935301661491394,18.36508560180664,4.585733413696289,1.9716438055038452,11.807709693908691,,,,
,9479,,78,,,,,,13.036723136901855,4.128799915313721,2.5985453128814697,6.309378147125244
0.0001,9489,,,,,,,,,,,
,9489,0.4021042585372925,79,,,,,,,,,
0.0001,9499,,,,,,,,,,,
,9499,0.2758600115776062,79,,,,,,,,,
0.0001,9509,,,,,,,,,,,
,9509,0.281220018863678,79,,,,,,,,,
0.0001,9519,,,,,,,,,,,
,9519,0.24653521180152893,79,,,,,,,,,
0.0001,9529,,,,,,,,,,,
,9529,0.3285781741142273,79,,,,,,,,,
0.0001,9539,,,,,,,,,,,
,9539,0.21679462492465973,79,,,,,,,,,
,9539,,79,0.727333664894104,16.83650779724121,4.56358003616333,1.6836508512496948,10.589278221130371,,,,
0.0001,9549,,,,,,,,,,,
,9549,0.281952828168869,79,,,,,,,,,
0.0001,9559,,,,,,,,,,,
,9559,0.34491968154907227,79,,,,,,,,,
0.0001,9569,,,,,,,,,,,
,9569,0.23137743771076202,79,,,,,,,,,
0.0001,9579,,,,,,,,,,,
,9579,0.22237113118171692,79,,,,,,,,,
0.0001,9589,,,,,,,,,,,
,9589,0.2367086261510849,79,,,,,,,,,
0.0001,9599,,,,,,,,,,,
,9599,0.2568678855895996,79,,,,,,,,,
,9599,,79,0.7109968066215515,16.570669174194336,4.297740459442139,1.6836508512496948,10.589278221130371,,,,
,9599,,79,,,,,,9.892677307128906,3.482156276702881,2.189058780670166,4.221461772918701
0.0001,9609,,,,,,,,,,,
,9609,0.2923692762851715,80,,,,,,,,,
0.0001,9619,,,,,,,,,,,
,9619,0.25111398100852966,80,,,,,,,,,
0.0001,9629,,,,,,,,,,,
,9629,0.2341524064540863,80,,,,,,,,,
0.0001,9639,,,,,,,,,,,
,9639,0.26513606309890747,80,,,,,,,,,
0.0001,9649,,,,,,,,,,,
,9649,0.2648608088493347,80,,,,,,,,,
0.0001,9659,,,,,,,,,,,
,9659,0.2797091007232666,80,,,,,,,,,
,9659,,80,0.7119868397712708,16.79220199584961,4.541426658630371,1.8387240171432495,10.4120512008667,,,,
0.0001,9669,,,,,,,,,,,
,9669,0.2862032651901245,80,,,,,,,,,
0.0001,9679,,,,,,,,,,,
,9679,0.251665860414505,80,,,,,,,,,
0.0001,9689,,,,,,,,,,,
,9689,0.30243968963623047,80,,,,,,,,,
0.0001,9699,,,,,,,,,,,
,9699,0.1737748235464096,80,,,,,,,,,
0.0001,9709,,,,,,,,,,,
,9709,0.19663958251476288,80,,,,,,,,,
0.0001,9719,,,,,,,,,,,
,9719,0.19171307981014252,80,,,,,,,,,
,9719,,80,0.7054072618484497,16.459901809692383,4.120513916015625,1.9937970638275146,10.34559154510498,,,,
,9719,,80,,,,,,8.242234230041504,3.0636799335479736,1.980116367340088,3.1984379291534424
0.0001,9729,,,,,,,,,,,
,9729,0.19170254468917847,81,,,,,,,,,
0.0001,9739,,,,,,,,,,,
,9739,0.2508297562599182,81,,,,,,,,,
0.0001,9749,,,,,,,,,,,
,9749,0.22698310017585754,81,,,,,,,,,
0.0001,9759,,,,,,,,,,,
,9759,0.26798927783966064,81,,,,,,,,,
0.0001,9769,,,,,,,,,,,
,9769,0.20207083225250244,81,,,,,,,,,
0.0001,9779,,,,,,,,,,,
,9779,0.26926282048225403,81,,,,,,,,,
,9779,,81,0.7016603946685791,16.37129020690918,3.8103678226470947,2.1488702297210693,10.4120512008667,,,,
0.0001,9789,,,,,,,,,,,
,9789,0.25305548310279846,81,,,,,,,,,
0.0001,9799,,,,,,,,,,,
,9799,0.19230414927005768,81,,,,,,,,,
0.0001,9809,,,,,,,,,,,
,9809,0.21289952099323273,81,,,,,,,,,
0.0001,9819,,,,,,,,,,,
,9819,0.2081187665462494,81,,,,,,,,,
0.0001,9829,,,,,,,,,,,
,9829,0.2309759110212326,81,,,,,,,,,
0.0001,9839,,,,,,,,,,,
,9839,0.22170193493366241,81,,,,,,,,,
,9839,,81,0.6850456595420837,16.105449676513672,4.27558708190918,1.5950376987457275,10.234825134277344,,,,
,9839,,81,,,,,,7.623386383056641,2.8480706214904785,1.8954925537109375,2.8798232078552246
0.0001,9849,,,,,,,,,,,
,9849,0.2560044229030609,82,,,,,,,,,
0.0001,9859,,,,,,,,,,,
,9859,0.21705274283885956,82,,,,,,,,,
0.0001,9869,,,,,,,,,,,
,9869,0.22079412639141083,82,,,,,,,,,
0.0001,9879,,,,,,,,,,,
,9879,0.18765714764595032,82,,,,,,,,,
0.0001,9889,,,,,,,,,,,
,9889,0.16059064865112305,82,,,,,,,,,
0.0001,9899,,,,,,,,,,,
,9899,0.16453412175178528,82,,,,,,,,,
,9899,,82,0.695133626461029,16.038990020751953,4.142667293548584,1.794417381286621,10.10190486907959,,,,
0.0001,9909,,,,,,,,,,,
,9909,0.1683477759361267,82,,,,,,,,,
0.0001,9919,,,,,,,,,,,
,9919,0.23551692068576813,82,,,,,,,,,
0.0001,9929,,,,,,,,,,,
,9929,0.21548686921596527,82,,,,,,,,,
0.0001,9939,,,,,,,,,,,
,9939,0.22085091471672058,82,,,,,,,,,
0.0001,9949,,,,,,,,,,,
,9949,0.15859666466712952,82,,,,,,,,,
0.0001,9959,,,,,,,,,,,
,9959,0.16727769374847412,82,,,,,,,,,
,9959,,82,0.6953637003898621,15.81745719909668,4.209126949310303,1.617190957069397,9.991138458251953,,,,
,9959,,82,,,,,,7.31559419631958,2.833087682723999,1.7472543716430664,2.7352523803710938
0.0001,9969,,,,,,,,,,,
,9969,0.20688097178936005,83,,,,,,,,,
0.0001,9979,,,,,,,,,,,
,9979,0.19068363308906555,83,,,,,,,,,
0.0001,9989,,,,,,,,,,,
,9989,0.2015293836593628,83,,,,,,,,,
0.0001,9999,,,,,,,,,,,
,9999,0.12378324568271637,83,,,,,,,,,
0.0001,10009,,,,,,,,,,,
,10009,0.1753028780221939,83,,,,,,,,,
0.0001,10019,,,,,,,,,,,
,10019,0.19947104156017303,83,,,,,,,,,
,10019,,83,0.6919582486152649,15.706689834594727,3.9654407501220703,1.7279574871063232,10.01329231262207,,,,
0.0001,10029,,,,,,,,,,,
,10029,0.20402085781097412,83,,,,,,,,,
0.0001,10039,,,,,,,,,,,
,10039,0.263442724943161,83,,,,,,,,,
0.0001,10049,,,,,,,,,,,
,10049,0.16984446346759796,83,,,,,,,,,
0.0001,10059,,,,,,,,,,,
,10059,0.23683804273605347,83,,,,,,,,,
0.0001,10069,,,,,,,,,,,
,10069,0.1667235791683197,83,,,,,,,,,
0.0001,10079,,,,,,,,,,,
,10079,0.21185509860515594,83,,,,,,,,,
,10079,,83,0.7062284350395203,16.12760353088379,4.342046737670898,1.8165706396102905,9.968985557556152,,,,
,10079,,83,,,,,,6.958709716796875,2.7375600337982178,1.7365837097167969,2.4845659732818604
0.0001,10089,,,,,,,,,,,
,10089,0.21568657457828522,84,,,,,,,,,
0.0001,10099,,,,,,,,,,,
,10099,0.129846453666687,84,,,,,,,,,
0.0001,10109,,,,,,,,,,,
,10109,0.24584634602069855,84,,,,,,,,,
0.0001,10119,,,,,,,,,,,
,10119,0.27490589022636414,84,,,,,,,,,
0.0001,10129,,,,,,,,,,,
,10129,0.15715210139751434,84,,,,,,,,,
0.0001,10139,,,,,,,,,,,
,10139,0.16864457726478577,84,,,,,,,,,
,10139,,84,0.6927275657653809,15.640230178833008,4.098360538482666,1.7722641229629517,9.76960563659668,,,,
0.0001,10149,,,,,,,,,,,
,10149,0.22969305515289307,84,,,,,,,,,
0.0001,10159,,,,,,,,,,,
,10159,0.13414858281612396,84,,,,,,,,,
0.0001,10169,,,,,,,,,,,
,10169,0.16709205508232117,84,,,,,,,,,
0.0001,10179,,,,,,,,,,,
,10179,0.23602381348609924,84,,,,,,,,,
0.0001,10189,,,,,,,,,,,
,10189,0.20166972279548645,84,,,,,,,,,
0.0001,10199,,,,,,,,,,,
,10199,0.23036444187164307,84,,,,,,,,,
,10199,,84,0.6933342814445496,15.463004112243652,3.8989808559417725,1.7279574871063232,9.836065292358398,,,,
,10199,,84,,,,,,6.6351165771484375,2.578106641769409,1.7031463384628296,2.3538637161254883
0.0001,10209,,,,,,,,,,,
,10209,0.1604289710521698,85,,,,,,,,,
0.0001,10219,,,,,,,,,,,
,10219,0.16790316998958588,85,,,,,,,,,
0.0001,10229,,,,,,,,,,,
,10229,0.1591745764017105,85,,,,,,,,,
0.0001,10239,,,,,,,,,,,
,10239,0.18497100472450256,85,,,,,,,,,
0.0001,10249,,,,,,,,,,,
,10249,0.1784282624721527,85,,,,,,,,,
0.0001,10259,,,,,,,,,,,
,10259,0.1608353853225708,85,,,,,,,,,
,10259,,85,0.696518063545227,15.950376510620117,3.9875941276550293,1.8387240171432495,10.124058723449707,,,,
0.0001,10269,,,,,,,,,,,
,10269,0.2087470293045044,85,,,,,,,,,
0.0001,10279,,,,,,,,,,,
,10279,0.15658549964427948,85,,,,,,,,,
0.0001,10289,,,,,,,,,,,
,10289,0.15079495310783386,85,,,,,,,,,
0.0001,10299,,,,,,,,,,,
,10299,0.14024914801120758,85,,,,,,,,,
0.0001,10309,,,,,,,,,,,
,10309,0.21905604004859924,85,,,,,,,,,
0.0001,10319,,,,,,,,,,,
,10319,0.1776297390460968,85,,,,,,,,,
,10319,,85,0.7015629410743713,16.038990020751953,4.031900882720947,1.8387240171432495,10.168365478515625,,,,
,10319,,85,,,,,,6.384697437286377,2.5768818855285645,1.6485472917556763,2.159268379211426
0.0001,10329,,,,,,,,,,,
,10329,0.2128743678331375,86,,,,,,,,,
0.0001,10339,,,,,,,,,,,
,10339,0.1496305614709854,86,,,,,,,,,
0.0001,10349,,,,,,,,,,,
,10349,0.17014482617378235,86,,,,,,,,,
0.0001,10359,,,,,,,,,,,
,10359,0.15211980044841766,86,,,,,,,,,
0.0001,10369,,,,,,,,,,,
,10369,0.20226138830184937,86,,,,,,,,,
0.0001,10379,,,,,,,,,,,
,10379,0.19656987488269806,86,,,,,,,,,
,10379,,86,0.6971721053123474,15.728843688964844,3.8103678226470947,1.9494904279708862,9.968985557556152,,,,
0.0001,10389,,,,,,,,,,,
,10389,0.16694971919059753,86,,,,,,,,,
0.0001,10399,,,,,,,,,,,
,10399,0.18077929317951202,86,,,,,,,,,
0.0001,10409,,,,,,,,,,,
,10409,0.15272104740142822,86,,,,,,,,,
0.0001,10419,,,,,,,,,,,
,10419,0.13186152279376984,86,,,,,,,,,
0.0001,10429,,,,,,,,,,,
,10429,0.18629750609397888,86,,,,,,,,,
0.0001,10439,,,,,,,,,,,
,10439,0.17836123704910278,86,,,,,,,,,
,10439,,86,0.7005999088287354,15.728843688964844,3.743907928466797,1.8830305337905884,10.10190486907959,,,,
,10439,,86,,,,,,6.203797817230225,2.540602922439575,1.6378575563430786,2.0253372192382812
0.0001,10449,,,,,,,,,,,
,10449,0.17310069501399994,87,,,,,,,,,
0.0001,10459,,,,,,,,,,,
,10459,0.19811829924583435,87,,,,,,,,,
0.0001,10469,,,,,,,,,,,
,10469,0.16536127030849457,87,,,,,,,,,
0.0001,10479,,,,,,,,,,,
,10479,0.1385047882795334,87,,,,,,,,,
0.0001,10489,,,,,,,,,,,
,10489,0.17130862176418304,87,,,,,,,,,
0.0001,10499,,,,,,,,,,,
,10499,0.1497008502483368,87,,,,,,,,,
,10499,,87,0.7000118494033813,15.418697357177734,4.164820671081543,1.5064244270324707,9.747452735900879,,,,
0.0001,10509,,,,,,,,,,,
,10509,0.20207446813583374,87,,,,,,,,,
0.0001,10519,,,,,,,,,,,
,10519,0.14600951969623566,87,,,,,,,,,
0.0001,10529,,,,,,,,,,,
,10529,0.19088220596313477,87,,,,,,,,,
0.0001,10539,,,,,,,,,,,
,10539,0.1948741376399994,87,,,,,,,,,
0.0001,10549,,,,,,,,,,,
,10549,0.12411955744028091,87,,,,,,,,,
0.0001,10559,,,,,,,,,,,
,10559,0.17570377886295319,87,,,,,,,,,
,10559,,87,0.7043517231941223,15.551617622375488,4.209126949310303,1.8387240171432495,9.503766059875488,,,,
,10559,,87,,,,,,6.244051933288574,2.5309996604919434,1.6399773359298706,2.0730748176574707
0.0001,10569,,,,,,,,,,,
,10569,0.10849828273057938,88,,,,,,,,,
0.0001,10579,,,,,,,,,,,
,10579,0.21113498508930206,88,,,,,,,,,
0.0001,10589,,,,,,,,,,,
,10589,0.23927466571331024,88,,,,,,,,,
0.0001,10599,,,,,,,,,,,
,10599,0.17224949598312378,88,,,,,,,,,
0.0001,10609,,,,,,,,,,,
,10609,0.18056215345859528,88,,,,,,,,,
0.0001,10619,,,,,,,,,,,
,10619,0.1682615578174591,88,,,,,,,,,
,10619,,88,0.7247276902198792,15.706689834594727,3.743907928466797,1.8165706396102905,10.146211624145508,,,,
0.0001,10629,,,,,,,,,,,
,10629,0.15853242576122284,88,,,,,,,,,
0.0001,10639,,,,,,,,,,,
,10639,0.11849509924650192,88,,,,,,,,,
0.0001,10649,,,,,,,,,,,
,10649,0.17477408051490784,88,,,,,,,,,
0.0001,10659,,,,,,,,,,,
,10659,0.08430871367454529,88,,,,,,,,,
0.0001,10669,,,,,,,,,,,
,10669,0.16799090802669525,88,,,,,,,,,
0.0001,10679,,,,,,,,,,,
,10679,0.1393820196390152,88,,,,,,,,,
,10679,,88,0.7170324325561523,15.706689834594727,3.9432876110076904,1.8165706396102905,9.946831703186035,,,,
,10679,,88,,,,,,6.0631914138793945,2.534815788269043,1.627951741218567,1.9004238843917847
0.0001,10689,,,,,,,,,,,
,10689,0.14918065071105957,89,,,,,,,,,
0.0001,10699,,,,,,,,,,,
,10699,0.20538607239723206,89,,,,,,,,,
0.0001,10709,,,,,,,,,,,
,10709,0.13016004860401154,89,,,,,,,,,
0.0001,10719,,,,,,,,,,,
,10719,0.1388213187456131,89,,,,,,,,,
0.0001,10729,,,,,,,,,,,
,10729,0.1807452291250229,89,,,,,,,,,
0.0001,10739,,,,,,,,,,,
,10739,0.1607743501663208,89,,,,,,,,,
,10739,,89,0.7221289873123169,15.529463768005371,3.8103678226470947,1.7279574871063232,9.991138458251953,,,,
0.0001,10749,,,,,,,,,,,
,10749,0.12881770730018616,89,,,,,,,,,
0.0001,10759,,,,,,,,,,,
,10759,0.12461847811937332,89,,,,,,,,,
0.0001,10769,,,,,,,,,,,
,10769,0.14995338022708893,89,,,,,,,,,
0.0001,10779,,,,,,,,,,,
,10779,0.2037288099527359,89,,,,,,,,,
0.0001,10789,,,,,,,,,,,
,10789,0.140600323677063,89,,,,,,,,,
0.0001,10799,,,,,,,,,,,
,10799,0.16811899840831757,89,,,,,,,,,
,10799,,89,0.712579607963562,15.485157012939453,4.009747505187988,1.6393442153930664,9.836065292358398,,,,
,10799,,89,,,,,,5.864993572235107,2.542922258377075,1.5348548889160156,1.7872164249420166
0.0001,10809,,,,,,,,,,,
,10809,0.19476209580898285,90,,,,,,,,,
0.0001,10819,,,,,,,,,,,
,10819,0.11362575739622116,90,,,,,,,,,
0.0001,10829,,,,,,,,,,,
,10829,0.12630484998226166,90,,,,,,,,,
0.0001,10839,,,,,,,,,,,
,10839,0.23226377367973328,90,,,,,,,,,
0.0001,10849,,,,,,,,,,,
,10849,0.09977863729000092,90,,,,,,,,,
0.0001,10859,,,,,,,,,,,
,10859,0.12934909760951996,90,,,,,,,,,
,10859,,90,0.7246106266975403,15.83961009979248,3.8546743392944336,1.9051839113235474,10.079751968383789,,,,
0.0001,10869,,,,,,,,,,,
,10869,0.14784879982471466,90,,,,,,,,,
0.0001,10879,,,,,,,,,,,
,10879,0.1096571832895279,90,,,,,,,,,
0.0001,10889,,,,,,,,,,,
,10889,0.1234963908791542,90,,,,,,,,,
0.0001,10899,,,,,,,,,,,
,10899,0.16132213175296783,90,,,,,,,,,
0.0001,10909,,,,,,,,,,,
,10909,0.1436755359172821,90,,,,,,,,,
0.0001,10919,,,,,,,,,,,
,10919,0.1409551501274109,90,,,,,,,,,
,10919,,90,0.7197827100753784,15.795303344726562,3.7882144451141357,2.1045634746551514,9.902525901794434,,,,
,10919,,90,,,,,,5.6545610427856445,2.4027411937713623,1.5371489524841309,1.714671015739441
0.0001,10929,,,,,,,,,,,
,10929,0.12239743024110794,91,,,,,,,,,
0.0001,10939,,,,,,,,,,,
,10939,0.16017986834049225,91,,,,,,,,,
0.0001,10949,,,,,,,,,,,
,10949,0.1734304130077362,91,,,,,,,,,
0.0001,10959,,,,,,,,,,,
,10959,0.1928316354751587,91,,,,,,,,,
0.0001,10969,,,,,,,,,,,
,10969,0.14210323989391327,91,,,,,,,,,
0.0001,10979,,,,,,,,,,,
,10979,0.18403491377830505,91,,,,,,,,,
,10979,,91,0.7272478938102722,15.59592342376709,3.9432876110076904,1.8165706396102905,9.836065292358398,,,,
0.0001,10989,,,,,,,,,,,
,10989,0.22464634478092194,91,,,,,,,,,
0.0001,10999,,,,,,,,,,,
,10999,0.1377549171447754,91,,,,,,,,,
0.0001,11009,,,,,,,,,,,
,11009,0.12503743171691895,91,,,,,,,,,
0.0001,11019,,,,,,,,,,,
,11019,0.2055448442697525,91,,,,,,,,,
0.0001,11029,,,,,,,,,,,
,11029,0.1402950882911682,91,,,,,,,,,
0.0001,11039,,,,,,,,,,,
,11039,0.11436431109905243,91,,,,,,,,,
,11039,,91,0.7321794629096985,15.618077278137207,3.9875941276550293,1.9051839113235474,9.725298881530762,,,,
,11039,,91,,,,,,5.558765888214111,2.2950549125671387,1.539668083190918,1.7240430116653442
0.0001,11049,,,,,,,,,,,
,11049,0.1643652468919754,92,,,,,,,,,
0.0001,11059,,,,,,,,,,,
,11059,0.17570406198501587,92,,,,,,,,,
0.0001,11069,,,,,,,,,,,
,11069,0.16386741399765015,92,,,,,,,,,
0.0001,11079,,,,,,,,,,,
,11079,0.18414998054504395,92,,,,,,,,,
0.0001,11089,,,,,,,,,,,
,11089,0.13437150418758392,92,,,,,,,,,
0.0001,11099,,,,,,,,,,,
,11099,0.16798298060894012,92,,,,,,,,,
,11099,,92,0.7303046584129333,16.105449676513672,4.27558708190918,1.7279574871063232,10.10190486907959,,,,
0.0001,11109,,,,,,,,,,,
,11109,0.1609542965888977,92,,,,,,,,,
0.0001,11119,,,,,,,,,,,
,11119,0.18568018078804016,92,,,,,,,,,
0.0001,11129,,,,,,,,,,,
,11129,0.17030785977840424,92,,,,,,,,,
0.0001,11139,,,,,,,,,,,
,11139,0.1891137957572937,92,,,,,,,,,
0.0001,11149,,,,,,,,,,,
,11149,0.1851300448179245,92,,,,,,,,,
0.0001,11159,,,,,,,,,,,
,11159,0.12196717411279678,92,,,,,,,,,
,11159,,92,0.7320376038551331,15.861763000488281,3.9875941276550293,1.7279574871063232,10.146211624145508,,,,
,11159,,92,,,,,,5.647803783416748,2.431502103805542,1.555830955505371,1.6604708433151245
0.0001,11169,,,,,,,,,,,
,11169,0.13738271594047546,93,,,,,,,,,
0.0001,11179,,,,,,,,,,,
,11179,0.12425129860639572,93,,,,,,,,,
0.0001,11189,,,,,,,,,,,
,11189,0.1449052095413208,93,,,,,,,,,
0.0001,11199,,,,,,,,,,,
,11199,0.16688525676727295,93,,,,,,,,,
0.0001,11209,,,,,,,,,,,
,11209,0.17111441493034363,93,,,,,,,,,
0.0001,11219,,,,,,,,,,,
,11219,0.1718769669532776,93,,,,,,,,,
,11219,,93,0.728602945804596,15.750996589660645,3.8768277168273926,1.794417381286621,10.079751968383789,,,,
0.0001,11229,,,,,,,,,,,
,11229,0.13713538646697998,93,,,,,,,,,
0.0001,11239,,,,,,,,,,,
,11239,0.19705146551132202,93,,,,,,,,,
0.0001,11249,,,,,,,,,,,
,11249,0.1590823233127594,93,,,,,,,,,
0.0001,11259,,,,,,,,,,,
,11259,0.12309234589338303,93,,,,,,,,,
0.0001,11269,,,,,,,,,,,
,11269,0.10811025649309158,93,,,,,,,,,
0.0001,11279,,,,,,,,,,,
,11279,0.17160962522029877,93,,,,,,,,,
,11279,,93,0.7283675670623779,15.241471290588379,3.65529465675354,1.6393442153930664,9.946831703186035,,,,
,11279,,93,,,,,,5.44815731048584,2.342404365539551,1.5074061155319214,1.5983465909957886
0.0001,11289,,,,,,,,,,,
,11289,0.1570136994123459,94,,,,,,,,,
0.0001,11299,,,,,,,,,,,
,11299,0.2196570783853531,94,,,,,,,,,
0.0001,11309,,,,,,,,,,,
,11309,0.1073998436331749,94,,,,,,,,,
0.0001,11319,,,,,,,,,,,
,11319,0.1446739286184311,94,,,,,,,,,
0.0001,11329,,,,,,,,,,,
,11329,0.171989306807518,94,,,,,,,,,
0.0001,11339,,,,,,,,,,,
,11339,0.1744777411222458,94,,,,,,,,,
,11339,,94,0.7211812138557434,15.307930946350098,3.8768277168273926,1.5507310628890991,9.880372047424316,,,,
0.0001,11349,,,,,,,,,,,
,11349,0.10243818163871765,94,,,,,,,,,
0.0001,11359,,,,,,,,,,,
,11359,0.12658952176570892,94,,,,,,,,,
0.0001,11369,,,,,,,,,,,
,11369,0.10328104346990585,94,,,,,,,,,
0.0001,11379,,,,,,,,,,,
,11379,0.11970226466655731,94,,,,,,,,,
0.0001,11389,,,,,,,,,,,
,11389,0.1866418868303299,94,,,,,,,,,
0.0001,11399,,,,,,,,,,,
,11399,0.16048508882522583,94,,,,,,,,,
,11399,,94,0.722481906414032,14.95347785949707,3.4337615966796875,1.6836508512496948,9.836065292358398,,,,
,11399,,94,,,,,,5.176308631896973,2.2506887912750244,1.4297521114349365,1.4958677291870117
0.0001,11409,,,,,,,,,,,
,11409,0.15327773988246918,95,,,,,,,,,
0.0001,11419,,,,,,,,,,,
,11419,0.12695227563381195,95,,,,,,,,,
0.0001,11429,,,,,,,,,,,
,11429,0.20823383331298828,95,,,,,,,,,
0.0001,11439,,,,,,,,,,,
,11439,0.11095017939805984,95,,,,,,,,,
0.0001,11449,,,,,,,,,,,
,11449,0.14254900813102722,95,,,,,,,,,
0.0001,11459,,,,,,,,,,,
,11459,0.13627612590789795,95,,,,,,,,,
,11459,,95,0.7158876657485962,15.219317436218262,3.7660610675811768,1.4842711687088013,9.968985557556152,,,,
0.0001,11469,,,,,,,,,,,
,11469,0.12013934552669525,95,,,,,,,,,
0.0001,11479,,,,,,,,,,,
,11479,0.12528476119041443,95,,,,,,,,,
0.0001,11489,,,,,,,,,,,
,11489,0.14306895434856415,95,,,,,,,,,
0.0001,11499,,,,,,,,,,,
,11499,0.14451782405376434,95,,,,,,,,,
0.0001,11509,,,,,,,,,,,
,11509,0.14912353456020355,95,,,,,,,,,
0.0001,11519,,,,,,,,,,,
,11519,0.16319258511066437,95,,,,,,,,,
,11519,,95,0.7140517234802246,15.130704879760742,3.65529465675354,1.6393442153930664,9.836065292358398,,,,
,11519,,95,,,,,,5.296767234802246,2.234337568283081,1.480403184890747,1.582026481628418
0.0001,11529,,,,,,,,,,,
,11529,0.18883545696735382,96,,,,,,,,,
0.0001,11539,,,,,,,,,,,
,11539,0.162278950214386,96,,,,,,,,,
0.0001,11549,,,,,,,,,,,
,11549,0.16751661896705627,96,,,,,,,,,
0.0001,11559,,,,,,,,,,,
,11559,0.15377771854400635,96,,,,,,,,,
0.0001,11569,,,,,,,,,,,
,11569,0.15282315015792847,96,,,,,,,,,
0.0001,11579,,,,,,,,,,,
,11579,0.12867097556591034,96,,,,,,,,,
,11579,,96,0.7353825569152832,15.285778045654297,3.677448034286499,1.8165706396102905,9.79175853729248,,,,
0.0001,11589,,,,,,,,,,,
,11589,0.14112712442874908,96,,,,,,,,,
0.0001,11599,,,,,,,,,,,
,11599,0.119509257376194,96,,,,,,,,,
0.0001,11609,,,,,,,,,,,
,11609,0.20284688472747803,96,,,,,,,,,
0.0001,11619,,,,,,,,,,,
,11619,0.1135651096701622,96,,,,,,,,,
0.0001,11629,,,,,,,,,,,
,11629,0.17646287381649017,96,,,,,,,,,
0.0001,11639,,,,,,,,,,,
,11639,0.1348484754562378,96,,,,,,,,,
,11639,,96,0.7367322444915771,15.50731086730957,4.098360538482666,1.7279574871063232,9.680992126464844,,,,
,11639,,96,,,,,,5.162191390991211,2.208651065826416,1.471977710723877,1.481562614440918
0.0001,11649,,,,,,,,,,,
,11649,0.11131814867258072,97,,,,,,,,,
0.0001,11659,,,,,,,,,,,
,11659,0.15950274467468262,97,,,,,,,,,
0.0001,11669,,,,,,,,,,,
,11669,0.1341378539800644,97,,,,,,,,,
0.0001,11679,,,,,,,,,,,
,11679,0.16611182689666748,97,,,,,,,,,
0.0001,11689,,,,,,,,,,,
,11689,0.14958998560905457,97,,,,,,,,,
0.0001,11699,,,,,,,,,,,
,11699,0.1558697372674942,97,,,,,,,,,
,11699,,97,0.7339306473731995,15.83961009979248,4.27558708190918,1.6614975929260254,9.902525901794434,,,,
0.0001,11709,,,,,,,,,,,
,11709,0.15804892778396606,97,,,,,,,,,
0.0001,11719,,,,,,,,,,,
,11719,0.13771285116672516,97,,,,,,,,,
0.0001,11729,,,,,,,,,,,
,11729,0.09777538478374481,97,,,,,,,,,
0.0001,11739,,,,,,,,,,,
,11739,0.14772963523864746,97,,,,,,,,,
0.0001,11749,,,,,,,,,,,
,11749,0.13156549632549286,97,,,,,,,,,
0.0001,11759,,,,,,,,,,,
,11759,0.16942287981510162,97,,,,,,,,,
,11759,,97,0.7384961247444153,15.883916854858398,4.585733413696289,1.4842711687088013,9.813912391662598,,,,
,11759,,97,,,,,,5.007895469665527,2.181942939758301,1.4116032123565674,1.4143494367599487
0.0001,11769,,,,,,,,,,,
,11769,0.13139376044273376,98,,,,,,,,,
0.0001,11779,,,,,,,,,,,
,11779,0.08994492888450623,98,,,,,,,,,
0.0001,11789,,,,,,,,,,,
,11789,0.13522808253765106,98,,,,,,,,,
0.0001,11799,,,,,,,,,,,
,11799,0.15064875781536102,98,,,,,,,,,
0.0001,11809,,,,,,,,,,,
,11809,0.13068662583827972,98,,,,,,,,,
0.0001,11819,,,,,,,,,,,
,11819,0.13110114634037018,98,,,,,,,,,
,11819,,98,0.7338879704475403,15.81745719909668,3.9654407501220703,1.7722641229629517,10.079751968383789,,,,
0.0001,11829,,,,,,,,,,,
,11829,0.09052328765392303,98,,,,,,,,,
0.0001,11839,,,,,,,,,,,
,11839,0.11482205241918564,98,,,,,,,,,
0.0001,11849,,,,,,,,,,,
,11849,0.09711723774671555,98,,,,,,,,,
0.0001,11859,,,,,,,,,,,
,11859,0.20114438235759735,98,,,,,,,,,
0.0001,11869,,,,,,,,,,,
,11869,0.15350960195064545,98,,,,,,,,,
0.0001,11879,,,,,,,,,,,
,11879,0.12578701972961426,98,,,,,,,,,
,11879,,98,0.7132676839828491,15.418697357177734,3.610988140106201,1.8165706396102905,9.991138458251953,,,,
,11879,,98,,,,,,5.098552703857422,2.1929702758789062,1.466574788093567,1.4390076398849487
0.0001,11889,,,,,,,,,,,
,11889,0.13776354491710663,99,,,,,,,,,
0.0001,11899,,,,,,,,,,,
,11899,0.10921438038349152,99,,,,,,,,,
0.0001,11909,,,,,,,,,,,
,11909,0.14427724480628967,99,,,,,,,,,
0.0001,11919,,,,,,,,,,,
,11919,0.1309124082326889,99,,,,,,,,,
0.0001,11929,,,,,,,,,,,
,11929,0.14171777665615082,99,,,,,,,,,
0.0001,11939,,,,,,,,,,,
,11939,0.1366126835346222,99,,,,,,,,,
,11939,,99,0.7239609956741333,15.241471290588379,3.610988140106201,1.6836508512496948,9.946831703186035,,,,
0.0001,11949,,,,,,,,,,,
,11949,0.1359526515007019,99,,,,,,,,,
0.0001,11959,,,,,,,,,,,
,11959,0.12415540963411331,99,,,,,,,,,
0.0001,11969,,,,,,,,,,,
,11969,0.15576539933681488,99,,,,,,,,,
0.0001,11979,,,,,,,,,,,
,11979,0.18921034038066864,99,,,,,,,,,
0.0001,11989,,,,,,,,,,,
,11989,0.1295906901359558,99,,,,,,,,,
0.0001,11999,,,,,,,,,,,
,11999,0.09258367121219635,99,,,,,,,,,
,11999,,99,0.7321467995643616,15.352237701416016,3.8989808559417725,1.5285778045654297,9.924678802490234,,,,
,11999,,99,,,,,,4.9728102684021,2.133767604827881,1.417451024055481,1.4215916395187378
0.0001,12009,,,,,,,,,,,
,12009,0.1286197155714035,100,,,,,,,,,
0.0001,12019,,,,,,,,,,,
,12019,0.116633340716362,100,,,,,,,,,
0.0001,12029,,,,,,,,,,,
,12029,0.17319943010807037,100,,,,,,,,,
0.0001,12039,,,,,,,,,,,
,12039,0.13718155026435852,100,,,,,,,,,
0.0001,12049,,,,,,,,,,,
,12049,0.12641389667987823,100,,,,,,,,,
0.0001,12059,,,,,,,,,,,
,12059,0.1432260274887085,100,,,,,,,,,
,12059,,100,0.7493288516998291,15.463004112243652,3.7660610675811768,1.6836508512496948,10.01329231262207,,,,
0.0001,12069,,,,,,,,,,,
,12069,0.19442328810691833,100,,,,,,,,,
0.0001,12079,,,,,,,,,,,
,12079,0.13731649518013,100,,,,,,,,,
0.0001,12089,,,,,,,,,,,
,12089,0.08510950207710266,100,,,,,,,,,
0.0001,12099,,,,,,,,,,,
,12099,0.142276331782341,100,,,,,,,,,
0.0001,12109,,,,,,,,,,,
,12109,0.15073372423648834,100,,,,,,,,,
0.0001,12119,,,,,,,,,,,
,12119,0.09016552567481995,100,,,,,,,,,
,12119,,100,0.7369695901870728,15.374390602111816,3.8325209617614746,1.6836508512496948,9.858219146728516,,,,
,12119,,100,,,,,,4.83042573928833,2.0723462104797363,1.4403150081634521,1.317764401435852
0.0001,12129,,,,,,,,,,,
,12129,0.12457073479890823,101,,,,,,,,,
0.0001,12139,,,,,,,,,,,
,12139,0.15262679755687714,101,,,,,,,,,
0.0001,12149,,,,,,,,,,,
,12149,0.11424596607685089,101,,,,,,,,,
0.0001,12159,,,,,,,,,,,
,12159,0.14054028689861298,101,,,,,,,,,
0.0001,12169,,,,,,,,,,,
,12169,0.11766646802425385,101,,,,,,,,,
0.0001,12179,,,,,,,,,,,
,12179,0.10076390951871872,101,,,,,,,,,
,12179,,101,0.7272173166275024,15.330083847045898,3.5445282459259033,1.8165706396102905,9.968985557556152,,,,
0.0001,12189,,,,,,,,,,,
,12189,0.14292389154434204,101,,,,,,,,,
0.0001,12199,,,,,,,,,,,
,12199,0.15894369781017303,101,,,,,,,,,
0.0001,12209,,,,,,,,,,,
,12209,0.12988285720348358,101,,,,,,,,,
0.0001,12219,,,,,,,,,,,
,12219,0.1414044052362442,101,,,,,,,,,
0.0001,12229,,,,,,,,,,,
,12229,0.1400848776102066,101,,,,,,,,,
0.0001,12239,,,,,,,,,,,
,12239,0.08513221144676208,101,,,,,,,,,
,12239,,101,0.7425738573074341,15.485157012939453,3.677448034286499,1.8165706396102905,9.991138458251953,,,,
,12239,,101,,,,,,4.952833652496338,2.186373472213745,1.4515973329544067,1.314862608909607
0.0001,12249,,,,,,,,,,,
,12249,0.1436205357313156,102,,,,,,,,,
0.0001,12259,,,,,,,,,,,
,12259,0.1281670331954956,102,,,,,,,,,
0.0001,12269,,,,,,,,,,,
,12269,0.14030084013938904,102,,,,,,,,,
0.0001,12279,,,,,,,,,,,
,12279,0.13768969476222992,102,,,,,,,,,
0.0001,12289,,,,,,,,,,,
,12289,0.12250036746263504,102,,,,,,,,,
0.0001,12299,,,,,,,,,,,
,12299,0.10820042341947556,102,,,,,,,,,
,12299,,102,0.7477781176567078,15.618077278137207,3.721754550933838,1.7501107454299927,10.146211624145508,,,,
0.0001,12309,,,,,,,,,,,
,12309,0.14622443914413452,102,,,,,,,,,
0.0001,12319,,,,,,,,,,,
,12319,0.14254744350910187,102,,,,,,,,,
0.0001,12329,,,,,,,,,,,
,12329,0.12898138165473938,102,,,,,,,,,
0.0001,12339,,,,,,,,,,,
,12339,0.13576272130012512,102,,,,,,,,,
0.0001,12349,,,,,,,,,,,
,12349,0.09502218663692474,102,,,,,,,,,
0.0001,12359,,,,,,,,,,,
,12359,0.10294999927282333,102,,,,,,,,,
,12359,,102,0.7354926466941833,15.883916854858398,3.8989808559417725,1.9273371696472168,10.057598114013672,,,,
,12359,,102,,,,,,4.834202766418457,2.0578396320343018,1.4177758693695068,1.3585871458053589
0.0001,12369,,,,,,,,,,,
,12369,0.150550976395607,103,,,,,,,,,
0.0001,12379,,,,,,,,,,,
,12379,0.15100263059139252,103,,,,,,,,,
0.0001,12389,,,,,,,,,,,
,12389,0.20871831476688385,103,,,,,,,,,
0.0001,12399,,,,,,,,,,,
,12399,0.1099923700094223,103,,,,,,,,,
0.0001,12409,,,,,,,,,,,
,12409,0.10703270137310028,103,,,,,,,,,
0.0001,12419,,,,,,,,,,,
,12419,0.12230407446622849,103,,,,,,,,,
,12419,,103,0.7380490303039551,15.485157012939453,3.9875941276550293,1.794417381286621,9.703145980834961,,,,
0.0001,12429,,,,,,,,,,,
,12429,0.1046905666589737,103,,,,,,,,,
0.0001,12439,,,,,,,,,,,
,12439,0.14531902968883514,103,,,,,,,,,
0.0001,12449,,,,,,,,,,,
,12449,0.12923066318035126,103,,,,,,,,,
0.0001,12459,,,,,,,,,,,
,12459,0.1492365002632141,103,,,,,,,,,
0.0001,12469,,,,,,,,,,,
,12469,0.11601311713457108,103,,,,,,,,,
0.0001,12479,,,,,,,,,,,
,12479,0.11374146491289139,103,,,,,,,,,
,12479,,103,0.735355794429779,15.551617622375488,4.186974048614502,1.6393442153930664,9.725298881530762,,,,
,12479,,103,,,,,,4.771338939666748,2.135270595550537,1.4377304315567017,1.1983380317687988
0.0001,12489,,,,,,,,,,,
,12489,0.11910087615251541,104,,,,,,,,,
0.0001,12499,,,,,,,,,,,
,12499,0.11553607881069183,104,,,,,,,,,
0.0001,12509,,,,,,,,,,,
,12509,0.11377988755702972,104,,,,,,,,,
0.0001,12519,,,,,,,,,,,
,12519,0.12266897410154343,104,,,,,,,,,
0.0001,12529,,,,,,,,,,,
,12529,0.086996890604496,104,,,,,,,,,
0.0001,12539,,,,,,,,,,,
,12539,0.14827290177345276,104,,,,,,,,,
,12539,,104,0.7473673820495605,15.81745719909668,3.721754550933838,1.8165706396102905,10.279131889343262,,,,
0.0001,12549,,,,,,,,,,,
,12549,0.09622809290885925,104,,,,,,,,,
0.0001,12559,,,,,,,,,,,
,12559,0.15840668976306915,104,,,,,,,,,
0.0001,12569,,,,,,,,,,,
,12569,0.10857674479484558,104,,,,,,,,,
0.0001,12579,,,,,,,,,,,
,12579,0.13366302847862244,104,,,,,,,,,
0.0001,12589,,,,,,,,,,,
,12589,0.13662919402122498,104,,,,,,,,,
0.0001,12599,,,,,,,,,,,
,12599,0.16663900017738342,104,,,,,,,,,
,12599,,104,0.739098072052002,15.418697357177734,3.588834762573242,1.860877275466919,9.968985557556152,,,,
,12599,,104,,,,,,4.817903518676758,2.099160671234131,1.413636326789856,1.3051064014434814
0.0001,12609,,,,,,,,,,,
,12609,0.09492598474025726,105,,,,,,,,,
0.0001,12619,,,,,,,,,,,
,12619,0.09035643935203552,105,,,,,,,,,
0.0001,12629,,,,,,,,,,,
,12629,0.14499498903751373,105,,,,,,,,,
0.0001,12639,,,,,,,,,,,
,12639,0.09564783424139023,105,,,,,,,,,
0.0001,12649,,,,,,,,,,,
,12649,0.1395130455493927,105,,,,,,,,,
0.0001,12659,,,,,,,,,,,
,12659,0.11683151125907898,105,,,,,,,,,
,12659,,105,0.7485029697418213,16.038990020751953,4.27558708190918,1.6393442153930664,10.124058723449707,,,,
0.0001,12669,,,,,,,,,,,
,12669,0.15284883975982666,105,,,,,,,,,
0.0001,12679,,,,,,,,,,,
,12679,0.11198015511035919,105,,,,,,,,,
0.0001,12689,,,,,,,,,,,
,12689,0.1028464213013649,105,,,,,,,,,
0.0001,12699,,,,,,,,,,,
,12699,0.1083594411611557,105,,,,,,,,,
0.0001,12709,,,,,,,,,,,
,12709,0.14719164371490479,105,,,,,,,,,
0.0001,12719,,,,,,,,,,,
,12719,0.09250903129577637,105,,,,,,,,,
,12719,,105,0.7466330528259277,15.042091369628906,3.721754550933838,1.617190957069397,9.703145980834961,,,,
,12719,,105,,,,,,4.733264446258545,2.08719539642334,1.3910058736801147,1.255063533782959
1e-05,12729,,,,,,,,,,,
,12729,0.14764998853206635,106,,,,,,,,,
1e-05,12739,,,,,,,,,,,
,12739,0.0995592474937439,106,,,,,,,,,
1e-05,12749,,,,,,,,,,,
,12749,0.1282193809747696,106,,,,,,,,,
1e-05,12759,,,,,,,,,,,
,12759,0.16423268616199493,106,,,,,,,,,
1e-05,12769,,,,,,,,,,,
,12769,0.1378047913312912,106,,,,,,,,,
1e-05,12779,,,,,,,,,,,
,12779,0.14639915525913239,106,,,,,,,,,
,12779,,106,0.7382080554962158,14.93132495880127,3.566681385040283,1.7058041095733643,9.658839225769043,,,,
1e-05,12789,,,,,,,,,,,
,12789,0.10984265059232712,106,,,,,,,,,
1e-05,12799,,,,,,,,,,,
,12799,0.2406013458967209,106,,,,,,,,,
1e-05,12809,,,,,,,,,,,
,12809,0.08538758009672165,106,,,,,,,,,
1e-05,12819,,,,,,,,,,,
,12819,0.17336530983448029,106,,,,,,,,,
1e-05,12829,,,,,,,,,,,
,12829,0.144737109541893,106,,,,,,,,,
1e-05,12839,,,,,,,,,,,
,12839,0.08568380028009415,106,,,,,,,,,
,12839,,106,0.7359563708305359,14.887018203735352,3.588834762573242,1.6836508512496948,9.614532470703125,,,,
,12839,,106,,,,,,4.594284534454346,2.0309972763061523,1.3839539289474487,1.1793333292007446
1e-05,12849,,,,,,,,,,,
,12849,0.16634884476661682,107,,,,,,,,,
1e-05,12859,,,,,,,,,,,
,12859,0.11479233205318451,107,,,,,,,,,
1e-05,12869,,,,,,,,,,,
,12869,0.1735224723815918,107,,,,,,,,,
1e-05,12879,,,,,,,,,,,
,12879,0.08112156391143799,107,,,,,,,,,
1e-05,12889,,,,,,,,,,,
,12889,0.14771133661270142,107,,,,,,,,,
1e-05,12899,,,,,,,,,,,
,12899,0.09820148348808289,107,,,,,,,,,
,12899,,107,0.7344347238540649,14.754097938537598,3.4780681133270264,1.617190957069397,9.658839225769043,,,,
1e-05,12909,,,,,,,,,,,
,12909,0.11065281182527542,107,,,,,,,,,
1e-05,12919,,,,,,,,,,,
,12919,0.09574989229440689,107,,,,,,,,,
1e-05,12929,,,,,,,,,,,
,12929,0.1001613438129425,107,,,,,,,,,
1e-05,12939,,,,,,,,,,,
,12939,0.14071963727474213,107,,,,,,,,,
1e-05,12949,,,,,,,,,,,
,12949,0.1292572319507599,107,,,,,,,,,
1e-05,12959,,,,,,,,,,,
,12959,0.1123608723282814,107,,,,,,,,,
,12959,,107,0.7330499887466431,14.842711448669434,3.633141279220581,1.6614975929260254,9.548072814941406,,,,
,12959,,107,,,,,,4.446520805358887,1.9937891960144043,1.2902605533599854,1.1624711751937866
1e-05,12969,,,,,,,,,,,
,12969,0.1127346009016037,108,,,,,,,,,
1e-05,12979,,,,,,,,,,,
,12979,0.1593790501356125,108,,,,,,,,,
1e-05,12989,,,,,,,,,,,
,12989,0.1279892474412918,108,,,,,,,,,
1e-05,12999,,,,,,,,,,,
,12999,0.10566810518503189,108,,,,,,,,,
1e-05,13009,,,,,,,,,,,
,13009,0.15145348012447357,108,,,,,,,,,
1e-05,13019,,,,,,,,,,,
,13019,0.13374003767967224,108,,,,,,,,,
,13019,,108,0.7313418388366699,14.820558547973633,3.5445282459259033,1.7279574871063232,9.548072814941406,,,,
1e-05,13029,,,,,,,,,,,
,13029,0.09085645526647568,108,,,,,,,,,
1e-05,13039,,,,,,,,,,,
,13039,0.070261649787426,108,,,,,,,,,
1e-05,13049,,,,,,,,,,,
,13049,0.1441885083913803,108,,,,,,,,,
1e-05,13059,,,,,,,,,,,
,13059,0.13093557953834534,108,,,,,,,,,
1e-05,13069,,,,,,,,,,,
,13069,0.14383728802204132,108,,,,,,,,,
1e-05,13079,,,,,,,,,,,
,13079,0.12466763705015182,108,,,,,,,,,
,13079,,108,0.7353434562683105,14.93132495880127,3.7660610675811768,1.7058041095733643,9.45945930480957,,,,
,13079,,108,,,,,,4.398269176483154,1.9304434061050415,1.337944746017456,1.1298812627792358
1e-05,13089,,,,,,,,,,,
,13089,0.14881260693073273,109,,,,,,,,,
1e-05,13099,,,,,,,,,,,
,13099,0.11146190762519836,109,,,,,,,,,
1e-05,13109,,,,,,,,,,,
,13109,0.07902312278747559,109,,,,,,,,,
1e-05,13119,,,,,,,,,,,
,13119,0.13231000304222107,109,,,,,,,,,
1e-05,13129,,,,,,,,,,,
,13129,0.12339622527360916,109,,,,,,,,,
1e-05,13139,,,,,,,,,,,
,13139,0.1309633105993271,109,,,,,,,,,
,13139,,109,0.7316213846206665,14.731945037841797,3.677448034286499,1.6836508512496948,9.370845794677734,,,,
1e-05,13149,,,,,,,,,,,
,13149,0.13066214323043823,109,,,,,,,,,
1e-05,13159,,,,,,,,,,,
,13159,0.16157221794128418,109,,,,,,,,,
1e-05,13169,,,,,,,,,,,
,13169,0.14570100605487823,109,,,,,,,,,
1e-05,13179,,,,,,,,,,,
,13179,0.11128156632184982,109,,,,,,,,,
1e-05,13189,,,,,,,,,,,
,13189,0.09756675362586975,109,,,,,,,,,
1e-05,13199,,,,,,,,,,,
,13199,0.13786828517913818,109,,,,,,,,,
,13199,,109,0.73314368724823,14.842711448669434,3.65529465675354,1.7279574871063232,9.45945930480957,,,,
,13199,,109,,,,,,4.36259126663208,2.0018699169158936,1.2827916145324707,1.077929973602295
1e-05,13209,,,,,,,,,,,
,13209,0.13045555353164673,110,,,,,,,,,
1e-05,13219,,,,,,,,,,,
,13219,0.0953647792339325,110,,,,,,,,,
1e-05,13229,,,,,,,,,,,
,13229,0.0637008547782898,110,,,,,,,,,
1e-05,13239,,,,,,,,,,,
,13239,0.12460441142320633,110,,,,,,,,,
1e-05,13249,,,,,,,,,,,
,13249,0.11316187679767609,110,,,,,,,,,
1e-05,13259,,,,,,,,,,,
,13259,0.08983787149190903,110,,,,,,,,,
,13259,,110,0.7383349537849426,14.95347785949707,3.610988140106201,1.8387240171432495,9.503766059875488,,,,
1e-05,13269,,,,,,,,,,,
,13269,0.12293249368667603,110,,,,,,,,,
1e-05,13279,,,,,,,,,,,
,13279,0.0924248918890953,110,,,,,,,,,
1e-05,13289,,,,,,,,,,,
,13289,0.12303571403026581,110,,,,,,,,,
1e-05,13299,,,,,,,,,,,
,13299,0.08764142543077469,110,,,,,,,,,
1e-05,13309,,,,,,,,,,,
,13309,0.11614026129245758,110,,,,,,,,,
1e-05,13319,,,,,,,,,,,
,13319,0.18238680064678192,110,,,,,,,,,
,13319,,110,0.7354404330253601,14.93132495880127,3.65529465675354,1.7501107454299927,9.525918960571289,,,,
,13319,,110,,,,,,4.302918910980225,2.0190935134887695,1.2907384634017944,0.9930868148803711
1e-05,13329,,,,,,,,,,,
,13329,0.08631191402673721,111,,,,,,,,,
1e-05,13339,,,,,,,,,,,
,13339,0.1594972014427185,111,,,,,,,,,
1e-05,13349,,,,,,,,,,,
,13349,0.09514213353395462,111,,,,,,,,,
1e-05,13359,,,,,,,,,,,
,13359,0.1053975522518158,111,,,,,,,,,
1e-05,13369,,,,,,,,,,,
,13369,0.14286907017230988,111,,,,,,,,,
1e-05,13379,,,,,,,,,,,
,13379,0.2145562618970871,111,,,,,,,,,
,13379,,111,0.7343109250068665,14.86486530303955,3.633141279220581,1.7279574871063232,9.503766059875488,,,,
1e-05,13389,,,,,,,,,,,
,13389,0.14813293516635895,111,,,,,,,,,
1e-05,13399,,,,,,,,,,,
,13399,0.10007704794406891,111,,,,,,,,,
1e-05,13409,,,,,,,,,,,
,13409,0.09768559038639069,111,,,,,,,,,
1e-05,13419,,,,,,,,,,,
,13419,0.11718524992465973,111,,,,,,,,,
1e-05,13429,,,,,,,,,,,
,13429,0.13884560763835907,111,,,,,,,,,
1e-05,13439,,,,,,,,,,,
,13439,0.09498806297779083,111,,,,,,,,,
,13439,,111,0.7356213331222534,14.887018203735352,3.743907928466797,1.7722641229629517,9.370845794677734,,,,
,13439,,111,,,,,,4.363995552062988,1.985755205154419,1.2886137962341309,1.0896265506744385
1e-05,13449,,,,,,,,,,,
,13449,0.16454479098320007,112,,,,,,,,,
1e-05,13459,,,,,,,,,,,
,13459,0.12268254905939102,112,,,,,,,,,
1e-05,13469,,,,,,,,,,,
,13469,0.15360145270824432,112,,,,,,,,,
1e-05,13479,,,,,,,,,,,
,13479,0.1175813153386116,112,,,,,,,,,
1e-05,13489,,,,,,,,,,,
,13489,0.14867575466632843,112,,,,,,,,,
1e-05,13499,,,,,,,,,,,
,13499,0.09368596971035004,112,,,,,,,,,
,13499,,112,0.7354133725166321,14.887018203735352,3.721754550933838,1.7058041095733643,9.45945930480957,,,,
1e-05,13509,,,,,,,,,,,
,13509,0.13425937294960022,112,,,,,,,,,
1e-05,13519,,,,,,,,,,,
,13519,0.11961357295513153,112,,,,,,,,,
1e-05,13529,,,,,,,,,,,
,13529,0.11078399419784546,112,,,,,,,,,
1e-05,13539,,,,,,,,,,,
,13539,0.09938740730285645,112,,,,,,,,,
1e-05,13549,,,,,,,,,,,
,13549,0.12258286029100418,112,,,,,,,,,
1e-05,13559,,,,,,,,,,,
,13559,0.12361273914575577,112,,,,,,,,,
,13559,,112,0.7359534502029419,14.842711448669434,3.721754550933838,1.617190957069397,9.503766059875488,,,,
,13559,,112,,,,,,4.32097053527832,1.9451934099197388,1.3192648887634277,1.0565123558044434
1e-05,13569,,,,,,,,,,,
,13569,0.11159855872392654,113,,,,,,,,,
1e-05,13579,,,,,,,,,,,
,13579,0.11552447080612183,113,,,,,,,,,
1e-05,13589,,,,,,,,,,,
,13589,0.12142729759216309,113,,,,,,,,,
1e-05,13599,,,,,,,,,,,
,13599,0.14817927777767181,113,,,,,,,,,
1e-05,13609,,,,,,,,,,,
,13609,0.10719525814056396,113,,,,,,,,,
1e-05,13619,,,,,,,,,,,
,13619,0.08545874059200287,113,,,,,,,,,
,13619,,113,0.7390302419662476,14.86486530303955,3.743907928466797,1.6393442153930664,9.481613159179688,,,,
1e-05,13629,,,,,,,,,,,
,13629,0.1071166917681694,113,,,,,,,,,
1e-05,13639,,,,,,,,,,,
,13639,0.12061096727848053,113,,,,,,,,,
1e-05,13649,,,,,,,,,,,
,13649,0.12247832864522934,113,,,,,,,,,
1e-05,13659,,,,,,,,,,,
,13659,0.13618038594722748,113,,,,,,,,,
1e-05,13669,,,,,,,,,,,
,13669,0.1397479623556137,113,,,,,,,,,
1e-05,13679,,,,,,,,,,,
,13679,0.12490438669919968,113,,,,,,,,,
,13679,,113,0.7353910207748413,14.798404693603516,3.5445282459259033,1.7501107454299927,9.503766059875488,,,,
,13679,,113,,,,,,4.3271870613098145,1.94270658493042,1.2759301662445068,1.1085500717163086
1e-05,13689,,,,,,,,,,,
,13689,0.11481111496686935,114,,,,,,,,,
1e-05,13699,,,,,,,,,,,
,13699,0.10773492604494095,114,,,,,,,,,
1e-05,13709,,,,,,,,,,,
,13709,0.14063560962677002,114,,,,,,,,,
1e-05,13719,,,,,,,,,,,
,13719,0.1778024286031723,114,,,,,,,,,
1e-05,13729,,,,,,,,,,,
,13729,0.1149803102016449,114,,,,,,,,,
1e-05,13739,,,,,,,,,,,
,13739,0.14957913756370544,114,,,,,,,,,
,13739,,114,0.7350024580955505,15.019937515258789,3.699601173400879,1.6614975929260254,9.658839225769043,,,,
1e-05,13749,,,,,,,,,,,
,13749,0.0762510597705841,114,,,,,,,,,
1e-05,13759,,,,,,,,,,,
,13759,0.10953478515148163,114,,,,,,,,,
1e-05,13769,,,,,,,,,,,
,13769,0.11582702398300171,114,,,,,,,,,
1e-05,13779,,,,,,,,,,,
,13779,0.1266782283782959,114,,,,,,,,,
1e-05,13789,,,,,,,,,,,
,13789,0.1469707190990448,114,,,,,,,,,
1e-05,13799,,,,,,,,,,,
,13799,0.1788100153207779,114,,,,,,,,,
,13799,,114,0.7317602038383484,15.019937515258789,3.699601173400879,1.617190957069397,9.703145980834961,,,,
,13799,,114,,,,,,4.3824262619018555,1.9854010343551636,1.3542438745498657,1.0427814722061157
1e-05,13809,,,,,,,,,,,
,13809,0.0969427302479744,115,,,,,,,,,
1e-05,13819,,,,,,,,,,,
,13819,0.10227576643228531,115,,,,,,,,,
1e-05,13829,,,,,,,,,,,
,13829,0.10129482299089432,115,,,,,,,,,
1e-05,13839,,,,,,,,,,,
,13839,0.14800406992435455,115,,,,,,,,,
1e-05,13849,,,,,,,,,,,
,13849,0.1820564866065979,115,,,,,,,,,
1e-05,13859,,,,,,,,,,,
,13859,0.11649841070175171,115,,,,,,,,,
,13859,,115,0.7359453439712524,14.975631713867188,3.699601173400879,1.7279574871063232,9.548072814941406,,,,
1e-05,13869,,,,,,,,,,,
,13869,0.10149633884429932,115,,,,,,,,,
1e-05,13879,,,,,,,,,,,
,13879,0.11079032719135284,115,,,,,,,,,
1e-05,13889,,,,,,,,,,,
,13889,0.12827494740486145,115,,,,,,,,,
1e-05,13899,,,,,,,,,,,
,13899,0.13345573842525482,115,,,,,,,,,
1e-05,13909,,,,,,,,,,,
,13909,0.12640757858753204,115,,,,,,,,,
1e-05,13919,,,,,,,,,,,
,13919,0.11100302636623383,115,,,,,,,,,
,13919,,115,0.7366595268249512,14.820558547973633,3.8103678226470947,1.6393442153930664,9.370845794677734,,,,
,13919,,115,,,,,,4.307616233825684,2.020313262939453,1.2771462202072144,1.0101566314697266
1e-05,13929,,,,,,,,,,,
,13929,0.14277710020542145,116,,,,,,,,,
1e-05,13939,,,,,,,,,,,
,13939,0.09515437483787537,116,,,,,,,,,
1e-05,13949,,,,,,,,,,,
,13949,0.10612618923187256,116,,,,,,,,,
1e-05,13959,,,,,,,,,,,
,13959,0.0971490889787674,116,,,,,,,,,
1e-05,13969,,,,,,,,,,,
,13969,0.1270853579044342,116,,,,,,,,,
1e-05,13979,,,,,,,,,,,
,13979,0.14742892980575562,116,,,,,,,,,
,13979,,116,0.7378883957862854,14.86486530303955,3.677448034286499,1.6393442153930664,9.548072814941406,,,,
1e-05,13989,,,,,,,,,,,
,13989,0.13126683235168457,116,,,,,,,,,
1e-05,13999,,,,,,,,,,,
,13999,0.1200571283698082,116,,,,,,,,,
1e-05,14009,,,,,,,,,,,
,14009,0.07895820587873459,116,,,,,,,,,
1e-05,14019,,,,,,,,,,,
,14019,0.10913190990686417,116,,,,,,,,,
1e-05,14029,,,,,,,,,,,
,14029,0.09393522888422012,116,,,,,,,,,
1e-05,14039,,,,,,,,,,,
,14039,0.16060711443424225,116,,,,,,,,,
,14039,,116,0.7387392520904541,15.152857780456543,3.65529465675354,1.6614975929260254,9.836065292358398,,,,
,14039,,116,,,,,,4.243684768676758,1.987548589706421,1.2685600519180298,0.9875761270523071
1e-05,14049,,,,,,,,,,,
,14049,0.10369842499494553,117,,,,,,,,,
1e-05,14059,,,,,,,,,,,
,14059,0.1408269852399826,117,,,,,,,,,
1e-05,14069,,,,,,,,,,,
,14069,0.13252119719982147,117,,,,,,,,,
1e-05,14079,,,,,,,,,,,
,14079,0.14305348694324493,117,,,,,,,,,
1e-05,14089,,,,,,,,,,,
,14089,0.14118251204490662,117,,,,,,,,,
1e-05,14099,,,,,,,,,,,
,14099,0.13324804604053497,117,,,,,,,,,
