lr-AdamW,step,train/loss,epoch,val/loss,val/CER,val/IER,val/DER,val/SER,train/CER,train/IER,train/DER,train/SER
0.001,9,,,,,,,,,,,
,9,63.79784393310547,0,,,,,,,,,
0.001,19,,,,,,,,,,,
,19,186.47821044921875,0,,,,,,,,,
0.001,29,,,,,,,,,,,
,29,106.30438995361328,0,,,,,,,,,
0.001,39,,,,,,,,,,,
,39,38.48634338378906,0,,,,,,,,,
0.001,49,,,,,,,,,,,
,49,23.518476486206055,0,,,,,,,,,
0.001,59,,,,,,,,,,,
,59,10.861204147338867,0,,,,,,,,,
,59,,0,11.62545394897461,93.81922912597656,86.44217681884766,0.08861320465803146,7.288435935974121,,,,
0.001,69,,,,,,,,,,,
,69,11.241451263427734,0,,,,,,,,,
0.001,79,,,,,,,,,,,
,79,9.370542526245117,0,,,,,,,,,
0.001,89,,,,,,,,,,,
,89,7.425787925720215,0,,,,,,,,,
0.001,99,,,,,,,,,,,
,99,5.687504768371582,0,,,,,,,,,
0.001,109,,,,,,,,,,,
,109,4.797817230224609,0,,,,,,,,,
0.001,119,,,,,,,,,,,
,119,4.215839385986328,0,,,,,,,,,
,119,,0,4.588974475860596,99.20248413085938,98.47142028808594,0.0,0.7310589551925659,,,,
,119,,0,,,,,,153.52978515625,57.04926300048828,63.90789031982422,32.57263946533203
0.001,129,,,,,,,,,,,
,129,6.3419189453125,1,,,,,,,,,
0.001,139,,,,,,,,,,,
,139,5.101944923400879,1,,,,,,,,,
0.001,149,,,,,,,,,,,
,149,4.06561279296875,1,,,,,,,,,
0.001,159,,,,,,,,,,,
,159,3.5559515953063965,1,,,,,,,,,
0.001,169,,,,,,,,,,,
,169,3.714428424835205,1,,,,,,,,,
0.001,179,,,,,,,,,,,
,179,3.5814404487609863,1,,,,,,,,,
,179,,1,3.4383513927459717,100.0,100.0,0.0,0.0,,,,
0.001,189,,,,,,,,,,,
,189,3.743286609649658,1,,,,,,,,,
0.001,199,,,,,,,,,,,
,199,3.4138987064361572,1,,,,,,,,,
0.001,209,,,,,,,,,,,
,209,3.241285562515259,1,,,,,,,,,
0.001,219,,,,,,,,,,,
,219,3.1705868244171143,1,,,,,,,,,
0.001,229,,,,,,,,,,,
,229,3.2630767822265625,1,,,,,,,,,
0.001,239,,,,,,,,,,,
,239,3.1894547939300537,1,,,,,,,,,
,239,,1,3.2425742149353027,100.0,100.0,0.0,0.0,,,,
,239,,1,,,,,,98.73970031738281,95.27146911621094,0.40867263078689575,3.0595593452453613
0.001,249,,,,,,,,,,,
,249,3.1503562927246094,2,,,,,,,,,
0.001,259,,,,,,,,,,,
,259,3.561915874481201,2,,,,,,,,,
0.001,269,,,,,,,,,,,
,269,3.099581241607666,2,,,,,,,,,
0.001,279,,,,,,,,,,,
,279,3.224630832672119,2,,,,,,,,,
0.001,289,,,,,,,,,,,
,289,3.3468844890594482,2,,,,,,,,,
0.001,299,,,,,,,,,,,
,299,3.29856538772583,2,,,,,,,,,
,299,,2,3.232760190963745,100.0,100.0,0.0,0.0,,,,
0.001,309,,,,,,,,,,,
,309,3.3306167125701904,2,,,,,,,,,
0.001,319,,,,,,,,,,,
,319,3.2544455528259277,2,,,,,,,,,
0.001,329,,,,,,,,,,,
,329,3.1026525497436523,2,,,,,,,,,
0.001,339,,,,,,,,,,,
,339,3.0848772525787354,2,,,,,,,,,
0.001,349,,,,,,,,,,,
,349,3.1324477195739746,2,,,,,,,,,
0.001,359,,,,,,,,,,,
,359,3.080181121826172,2,,,,,,,,,
,359,,2,3.0222017765045166,100.0,100.0,0.0,0.0,,,,
,359,,2,,,,,,99.88854217529297,99.7990951538086,0.0,0.08944420516490936
0.001,369,,,,,,,,,,,
,369,3.3689379692077637,3,,,,,,,,,
0.001,379,,,,,,,,,,,
,379,3.024693012237549,3,,,,,,,,,
0.001,389,,,,,,,,,,,
,389,3.140475273132324,3,,,,,,,,,
0.001,399,,,,,,,,,,,
,399,3.1873764991760254,3,,,,,,,,,
0.001,409,,,,,,,,,,,
,409,3.179841995239258,3,,,,,,,,,
0.001,419,,,,,,,,,,,
,419,3.089719772338867,3,,,,,,,,,
,419,,3,3.0955352783203125,100.0,100.0,0.0,0.0,,,,
0.001,429,,,,,,,,,,,
,429,3.163794755935669,3,,,,,,,,,
0.001,439,,,,,,,,,,,
,439,3.082249641418457,3,,,,,,,,,
0.001,449,,,,,,,,,,,
,449,3.047800302505493,3,,,,,,,,,
0.001,459,,,,,,,,,,,
,459,2.9756712913513184,3,,,,,,,,,
0.001,469,,,,,,,,,,,
,469,3.0738015174865723,3,,,,,,,,,
0.001,479,,,,,,,,,,,
,479,3.111294746398926,3,,,,,,,,,
,479,,3,3.2029871940612793,100.0,100.0,0.0,0.0,,,,
,479,,3,,,,,,99.8553695678711,99.80439758300781,0.0013774674152955413,0.049588825553655624
0.001,489,,,,,,,,,,,
,489,2.9742302894592285,4,,,,,,,,,
0.001,499,,,,,,,,,,,
,499,3.002511978149414,4,,,,,,,,,
0.001,509,,,,,,,,,,,
,509,3.038576126098633,4,,,,,,,,,
0.001,519,,,,,,,,,,,
,519,2.8756184577941895,4,,,,,,,,,
0.001,529,,,,,,,,,,,
,529,2.919668197631836,4,,,,,,,,,
0.001,539,,,,,,,,,,,
,539,2.8645036220550537,4,,,,,,,,,
,539,,4,2.9509780406951904,99.95569610595703,99.95569610595703,0.0,0.0,,,,
0.001,549,,,,,,,,,,,
,549,2.987727642059326,4,,,,,,,,,
0.001,559,,,,,,,,,,,
,559,2.8953137397766113,4,,,,,,,,,
0.001,569,,,,,,,,,,,
,569,2.9139182567596436,4,,,,,,,,,
0.001,579,,,,,,,,,,,
,579,3.0469467639923096,4,,,,,,,,,
0.001,589,,,,,,,,,,,
,589,2.99949312210083,4,,,,,,,,,
0.001,599,,,,,,,,,,,
,599,3.0736427307128906,4,,,,,,,,,
,599,,4,2.9554975032806396,100.0,100.0,0.0,0.0,,,,
,599,,4,,,,,,99.76970672607422,99.69523620605469,0.0,0.07446632534265518
0.001,609,,,,,,,,,,,
,609,2.865415096282959,5,,,,,,,,,
0.001,619,,,,,,,,,,,
,619,2.9622159004211426,5,,,,,,,,,
0.001,629,,,,,,,,,,,
,629,2.9313724040985107,5,,,,,,,,,
0.001,639,,,,,,,,,,,
,639,2.9667224884033203,5,,,,,,,,,
0.001,649,,,,,,,,,,,
,649,3.162693977355957,5,,,,,,,,,
0.001,659,,,,,,,,,,,
,659,2.9975390434265137,5,,,,,,,,,
,659,,5,3.000706434249878,99.86708068847656,99.86708068847656,0.0,0.0,,,,
0.001,669,,,,,,,,,,,
,669,2.9555649757385254,5,,,,,,,,,
0.001,679,,,,,,,,,,,
,679,2.875321865081787,5,,,,,,,,,
0.001,689,,,,,,,,,,,
,689,3.012209892272949,5,,,,,,,,,
0.001,699,,,,,,,,,,,
,699,2.8340871334075928,5,,,,,,,,,
0.001,709,,,,,,,,,,,
,709,2.894681215286255,5,,,,,,,,,
0.001,719,,,,,,,,,,,
,719,2.868321180343628,5,,,,,,,,,
,719,,5,2.8483219146728516,100.0,100.0,0.0,0.0,,,,
,719,,5,,,,,,99.59207916259766,99.47396087646484,0.0,0.11811888962984085
0.001,729,,,,,,,,,,,
,729,2.906264305114746,6,,,,,,,,,
0.001,739,,,,,,,,,,,
,739,2.867748737335205,6,,,,,,,,,
0.001,749,,,,,,,,,,,
,749,3.1432833671569824,6,,,,,,,,,
0.001,759,,,,,,,,,,,
,759,2.829916477203369,6,,,,,,,,,
0.001,769,,,,,,,,,,,
,769,2.95432710647583,6,,,,,,,,,
0.001,779,,,,,,,,,,,
,779,2.9176883697509766,6,,,,,,,,,
,779,,6,2.983231544494629,99.97784423828125,99.97784423828125,0.0,0.0,,,,
0.001,789,,,,,,,,,,,
,789,2.9264931678771973,6,,,,,,,,,
0.001,799,,,,,,,,,,,
,799,2.8689489364624023,6,,,,,,,,,
0.001,809,,,,,,,,,,,
,809,2.871016025543213,6,,,,,,,,,
0.001,819,,,,,,,,,,,
,819,2.8938488960266113,6,,,,,,,,,
0.001,829,,,,,,,,,,,
,829,2.857146978378296,6,,,,,,,,,
0.001,839,,,,,,,,,,,
,839,2.8331410884857178,6,,,,,,,,,
,839,,6,2.838674783706665,99.95569610595703,99.95569610595703,0.0,0.0,,,,
,839,,6,,,,,,99.60537719726562,99.52562713623047,0.0,0.0797492042183876
0.001,849,,,,,,,,,,,
,849,2.852297782897949,7,,,,,,,,,
0.001,859,,,,,,,,,,,
,859,2.7998108863830566,7,,,,,,,,,
0.001,869,,,,,,,,,,,
,869,2.796414613723755,7,,,,,,,,,
0.001,879,,,,,,,,,,,
,879,2.8424410820007324,7,,,,,,,,,
0.001,889,,,,,,,,,,,
,889,2.8602442741394043,7,,,,,,,,,
0.001,899,,,,,,,,,,,
,899,2.791424512863159,7,,,,,,,,,
,899,,7,2.7868711948394775,99.93354034423828,99.93354034423828,0.0,0.0,,,,
0.001,909,,,,,,,,,,,
,909,2.6883363723754883,7,,,,,,,,,
0.001,919,,,,,,,,,,,
,919,2.719271183013916,7,,,,,,,,,
0.001,929,,,,,,,,,,,
,929,2.7346301078796387,7,,,,,,,,,
0.001,939,,,,,,,,,,,
,939,2.647078514099121,7,,,,,,,,,
0.001,949,,,,,,,,,,,
,949,2.8476176261901855,7,,,,,,,,,
0.001,959,,,,,,,,,,,
,959,2.8974575996398926,7,,,,,,,,,
,959,,7,2.8332884311676025,99.86708068847656,99.86708068847656,0.0,0.0,,,,
,959,,7,,,,,,99.45952606201172,99.38663482666016,0.0,0.07288829982280731
0.001,969,,,,,,,,,,,
,969,2.836164712905884,8,,,,,,,,,
0.001,979,,,,,,,,,,,
,979,2.734326124191284,8,,,,,,,,,
0.001,989,,,,,,,,,,,
,989,2.7228283882141113,8,,,,,,,,,
0.001,999,,,,,,,,,,,
,999,2.761221408843994,8,,,,,,,,,
0.001,1009,,,,,,,,,,,
,1009,2.7734947204589844,8,,,,,,,,,
0.001,1019,,,,,,,,,,,
,1019,2.7191905975341797,8,,,,,,,,,
,1019,,8,2.643406629562378,97.47452545166016,97.43021392822266,0.0,0.04430660232901573,,,,
0.001,1029,,,,,,,,,,,
,1029,2.662485361099243,8,,,,,,,,,
0.001,1039,,,,,,,,,,,
,1039,2.614570140838623,8,,,,,,,,,
0.001,1049,,,,,,,,,,,
,1049,2.6684038639068604,8,,,,,,,,,
0.001,1059,,,,,,,,,,,
,1059,2.636160135269165,8,,,,,,,,,
0.001,1069,,,,,,,,,,,
,1069,2.6385674476623535,8,,,,,,,,,
0.001,1079,,,,,,,,,,,
,1079,2.570146322250366,8,,,,,,,,,
,1079,,8,2.506657838821411,95.52503204345703,95.30349731445312,0.0,0.22153301537036896,,,,
,1079,,8,,,,,,98.30207061767578,98.14495849609375,0.0,0.15711352229118347
0.001,1089,,,,,,,,,,,
,1089,2.5731635093688965,9,,,,,,,,,
0.001,1099,,,,,,,,,,,
,1099,2.7330570220947266,9,,,,,,,,,
0.001,1109,,,,,,,,,,,
,1109,2.578916072845459,9,,,,,,,,,
0.001,1119,,,,,,,,,,,
,1119,2.530320644378662,9,,,,,,,,,
0.001,1129,,,,,,,,,,,
,1129,2.482999563217163,9,,,,,,,,,
0.001,1139,,,,,,,,,,,
,1139,2.624340772628784,9,,,,,,,,,
,1139,,9,2.564054489135742,95.74656677246094,95.59149169921875,0.0,0.1550731062889099,,,,
0.001,1149,,,,,,,,,,,
,1149,2.5788140296936035,9,,,,,,,,,
0.001,1159,,,,,,,,,,,
,1159,2.5055177211761475,9,,,,,,,,,
0.001,1169,,,,,,,,,,,
,1169,2.416499137878418,9,,,,,,,,,
0.001,1179,,,,,,,,,,,
,1179,2.544981002807617,9,,,,,,,,,
0.001,1189,,,,,,,,,,,
,1189,2.405056953430176,9,,,,,,,,,
0.001,1199,,,,,,,,,,,
,1199,2.4242327213287354,9,,,,,,,,,
,1199,,9,2.442511558532715,95.43641662597656,95.19273376464844,0.0,0.24368630349636078,,,,
,1199,,9,,,,,,96.27783203125,95.93531036376953,0.0,0.3425225019454956
0.001,1209,,,,,,,,,,,
,1209,2.4848856925964355,10,,,,,,,,,
0.001,1219,,,,,,,,,,,
,1219,2.5047762393951416,10,,,,,,,,,
0.001,1229,,,,,,,,,,,
,1229,2.4093832969665527,10,,,,,,,,,
0.001,1239,,,,,,,,,,,
,1239,2.3924508094787598,10,,,,,,,,,
0.001,1249,,,,,,,,,,,
,1249,2.4974899291992188,10,,,,,,,,,
0.001,1259,,,,,,,,,,,
,1259,2.4595494270324707,10,,,,,,,,,
,1259,,10,2.3175904750823975,93.08817291259766,92.68940734863281,0.0,0.3987594246864319,,,,
0.001,1269,,,,,,,,,,,
,1269,2.414656162261963,10,,,,,,,,,
0.001,1279,,,,,,,,,,,
,1279,2.5281853675842285,10,,,,,,,,,
0.001,1289,,,,,,,,,,,
,1289,2.6225168704986572,10,,,,,,,,,
0.001,1299,,,,,,,,,,,
,1299,2.487680196762085,10,,,,,,,,,
0.001,1309,,,,,,,,,,,
,1309,2.4443397521972656,10,,,,,,,,,
0.001,1319,,,,,,,,,,,
,1319,2.3734171390533447,10,,,,,,,,,
,1319,,10,2.2983109951019287,91.05006408691406,90.25254821777344,0.0,0.7975188493728638,,,,
,1319,,10,,,,,,93.6116943359375,92.80714416503906,0.0,0.8045549988746643
0.001,1329,,,,,,,,,,,
,1329,2.4280736446380615,11,,,,,,,,,
0.001,1339,,,,,,,,,,,
,1339,2.4888768196105957,11,,,,,,,,,
0.001,1349,,,,,,,,,,,
,1349,2.3512840270996094,11,,,,,,,,,
0.001,1359,,,,,,,,,,,
,1359,2.1847386360168457,11,,,,,,,,,
0.001,1369,,,,,,,,,,,
,1369,2.3206028938293457,11,,,,,,,,,
0.001,1379,,,,,,,,,,,
,1379,2.259444236755371,11,,,,,,,,,
,1379,,11,2.1680078506469727,89.36641693115234,88.85688781738281,0.0,0.5095258951187134,,,,
0.001,1389,,,,,,,,,,,
,1389,2.3699123859405518,11,,,,,,,,,
0.001,1399,,,,,,,,,,,
,1399,2.3376195430755615,11,,,,,,,,,
0.001,1409,,,,,,,,,,,
,1409,2.200493097305298,11,,,,,,,,,
0.001,1419,,,,,,,,,,,
,1419,2.2719733715057373,11,,,,,,,,,
0.001,1429,,,,,,,,,,,
,1429,2.245013475418091,11,,,,,,,,,
0.001,1439,,,,,,,,,,,
,1439,2.311630964279175,11,,,,,,,,,
,1439,,11,2.1040453910827637,87.85999298095703,87.04032135009766,0.0,0.8196721076965332,,,,
,1439,,11,,,,,,90.51959228515625,89.25296783447266,0.011014125309884548,1.2556103467941284
0.001,1449,,,,,,,,,,,
,1449,2.3466625213623047,12,,,,,,,,,
0.001,1459,,,,,,,,,,,
,1459,2.2526793479919434,12,,,,,,,,,
0.001,1469,,,,,,,,,,,
,1469,2.3150293827056885,12,,,,,,,,,
0.001,1479,,,,,,,,,,,
,1479,2.130235195159912,12,,,,,,,,,
0.001,1489,,,,,,,,,,,
,1489,2.27406907081604,12,,,,,,,,,
0.001,1499,,,,,,,,,,,
,1499,2.0987067222595215,12,,,,,,,,,
,1499,,12,2.062285900115967,88.85688781738281,88.30305480957031,0.0,0.5538325309753418,,,,
0.001,1509,,,,,,,,,,,
,1509,2.1872787475585938,12,,,,,,,,,
0.001,1519,,,,,,,,,,,
,1519,2.1373119354248047,12,,,,,,,,,
0.001,1529,,,,,,,,,,,
,1529,2.145169973373413,12,,,,,,,,,
0.001,1539,,,,,,,,,,,
,1539,2.076470375061035,12,,,,,,,,,
0.001,1549,,,,,,,,,,,
,1549,2.063035488128662,12,,,,,,,,,
0.001,1559,,,,,,,,,,,
,1559,2.255606174468994,12,,,,,,,,,
,1559,,12,2.06320858001709,81.47984313964844,79.6854248046875,0.022153301164507866,1.7722641229629517,,,,
,1559,,12,,,,,,87.46080780029297,85.82430267333984,0.012376918457448483,1.6241267919540405
0.001,1569,,,,,,,,,,,
,1569,2.1859235763549805,13,,,,,,,,,
0.001,1579,,,,,,,,,,,
,1579,2.118283271789551,13,,,,,,,,,
0.001,1589,,,,,,,,,,,
,1589,2.075693130493164,13,,,,,,,,,
0.001,1599,,,,,,,,,,,
,1599,2.2127344608306885,13,,,,,,,,,
0.001,1609,,,,,,,,,,,
,1609,2.0102438926696777,13,,,,,,,,,
0.001,1619,,,,,,,,,,,
,1619,2.12314510345459,13,,,,,,,,,
,1619,,13,1.9741815328598022,82.94195556640625,81.43553161621094,0.04430660232901573,1.4621179103851318,,,,
0.001,1629,,,,,,,,,,,
,1629,2.0581345558166504,13,,,,,,,,,
0.001,1639,,,,,,,,,,,
,1639,2.1210885047912598,13,,,,,,,,,
0.001,1649,,,,,,,,,,,
,1649,2.09185528755188,13,,,,,,,,,
0.001,1659,,,,,,,,,,,
,1659,2.0962274074554443,13,,,,,,,,,
0.001,1669,,,,,,,,,,,
,1669,2.2045412063598633,13,,,,,,,,,
0.001,1679,,,,,,,,,,,
,1679,2.021726369857788,13,,,,,,,,,
,1679,,13,1.8838186264038086,79.70757293701172,77.86885070800781,0.04430660232901573,1.794417381286621,,,,
,1679,,13,,,,,,85.0748519897461,82.8780746459961,0.01924583874642849,2.1775290966033936
0.001,1689,,,,,,,,,,,
,1689,2.0105648040771484,14,,,,,,,,,
0.001,1699,,,,,,,,,,,
,1699,2.0722062587738037,14,,,,,,,,,
0.001,1709,,,,,,,,,,,
,1709,2.105677604675293,14,,,,,,,,,
0.001,1719,,,,,,,,,,,
,1719,2.0198974609375,14,,,,,,,,,
0.001,1729,,,,,,,,,,,
,1729,2.020897388458252,14,,,,,,,,,
0.001,1739,,,,,,,,,,,
,1739,1.9914729595184326,14,,,,,,,,,
,1739,,14,1.9139318466186523,82.32166290283203,80.72663116455078,0.0,1.5950376987457275,,,,
0.001,1749,,,,,,,,,,,
,1749,2.147706985473633,14,,,,,,,,,
0.001,1759,,,,,,,,,,,
,1759,2.1068830490112305,14,,,,,,,,,
0.001,1769,,,,,,,,,,,
,1769,1.9693875312805176,14,,,,,,,,,
0.001,1779,,,,,,,,,,,
,1779,2.093858003616333,14,,,,,,,,,
0.001,1789,,,,,,,,,,,
,1789,1.9469830989837646,14,,,,,,,,,
0.001,1799,,,,,,,,,,,
,1799,2.0050301551818848,14,,,,,,,,,
,1799,,14,1.782325029373169,78.66637420654297,76.62826538085938,0.022153301164507866,2.0159504413604736,,,,
,1799,,14,,,,,,82.05581665039062,78.90332794189453,0.040044739842414856,3.112442970275879
0.001,1809,,,,,,,,,,,
,1809,1.9314937591552734,15,,,,,,,,,
0.001,1819,,,,,,,,,,,
,1819,1.9471139907836914,15,,,,,,,,,
0.001,1829,,,,,,,,,,,
,1829,1.9432635307312012,15,,,,,,,,,
0.001,1839,,,,,,,,,,,
,1839,2.0107004642486572,15,,,,,,,,,
0.001,1849,,,,,,,,,,,
,1849,2.067930221557617,15,,,,,,,,,
0.001,1859,,,,,,,,,,,
,1859,1.9499402046203613,15,,,,,,,,,
,1859,,15,1.8209348917007446,73.59326171875,69.07398986816406,0.11076650768518448,4.408506870269775,,,,
0.001,1869,,,,,,,,,,,
,1869,1.9649356603622437,15,,,,,,,,,
0.001,1879,,,,,,,,,,,
,1879,1.9251080751419067,15,,,,,,,,,
0.001,1889,,,,,,,,,,,
,1889,1.842866063117981,15,,,,,,,,,
0.001,1899,,,,,,,,,,,
,1899,1.8563967943191528,15,,,,,,,,,
0.001,1909,,,,,,,,,,,
,1909,1.909752368927002,15,,,,,,,,,
0.001,1919,,,,,,,,,,,
,1919,1.9301316738128662,15,,,,,,,,,
,1919,,15,1.6835534572601318,73.32742309570312,67.85556030273438,0.04430660232901573,5.427558898925781,,,,
,1919,,15,,,,,,78.83097076416016,74.57433319091797,0.05638839304447174,4.200247764587402
0.001,1929,,,,,,,,,,,
,1929,1.9447342157363892,16,,,,,,,,,
0.001,1939,,,,,,,,,,,
,1939,2.0035524368286133,16,,,,,,,,,
0.001,1949,,,,,,,,,,,
,1949,1.9010308980941772,16,,,,,,,,,
0.001,1959,,,,,,,,,,,
,1959,1.8794317245483398,16,,,,,,,,,
0.001,1969,,,,,,,,,,,
,1969,1.7565442323684692,16,,,,,,,,,
0.001,1979,,,,,,,,,,,
,1979,1.9687669277191162,16,,,,,,,,,
,1979,,16,1.6710138320922852,69.4284439086914,63.55781936645508,0.11076650768518448,5.759858131408691,,,,
0.001,1989,,,,,,,,,,,
,1989,1.7868571281433105,16,,,,,,,,,
0.001,1999,,,,,,,,,,,
,1999,1.9018733501434326,16,,,,,,,,,
0.001,2009,,,,,,,,,,,
,2009,1.7437787055969238,16,,,,,,,,,
0.001,2019,,,,,,,,,,,
,2019,1.8882085084915161,16,,,,,,,,,
0.001,2029,,,,,,,,,,,
,2029,1.9175198078155518,16,,,,,,,,,
0.001,2039,,,,,,,,,,,
,2039,1.7863829135894775,16,,,,,,,,,
,2039,,16,1.6172147989273071,69.45059967041016,62.71599578857422,0.08861320465803146,6.645990371704102,,,,
,2039,,16,,,,,,74.4654541015625,68.31871032714844,0.14693966507911682,5.999807834625244
0.001,2049,,,,,,,,,,,
,2049,1.9999854564666748,17,,,,,,,,,
0.001,2059,,,,,,,,,,,
,2059,1.755576729774475,17,,,,,,,,,
0.001,2069,,,,,,,,,,,
,2069,1.8876123428344727,17,,,,,,,,,
0.001,2079,,,,,,,,,,,
,2079,1.9580721855163574,17,,,,,,,,,
0.001,2089,,,,,,,,,,,
,2089,1.813378095626831,17,,,,,,,,,
0.001,2099,,,,,,,,,,,
,2099,1.7874594926834106,17,,,,,,,,,
,2099,,17,1.5550472736358643,63.42490005493164,55.206024169921875,0.287992924451828,7.930881500244141,,,,
0.001,2109,,,,,,,,,,,
,2109,1.8368617296218872,17,,,,,,,,,
0.001,2119,,,,,,,,,,,
,2119,1.7385258674621582,17,,,,,,,,,
0.001,2129,,,,,,,,,,,
,2129,1.8235710859298706,17,,,,,,,,,
0.001,2139,,,,,,,,,,,
,2139,1.7725040912628174,17,,,,,,,,,
0.001,2149,,,,,,,,,,,
,2149,1.800010323524475,17,,,,,,,,,
0.001,2159,,,,,,,,,,,
,2159,1.8753483295440674,17,,,,,,,,,
,2159,,17,1.5496318340301514,61.45325469970703,53.500221252441406,0.287992924451828,7.665041923522949,,,,
,2159,,17,,,,,,68.90101623535156,59.94942092895508,0.2693861722946167,8.682207107543945
0.001,2169,,,,,,,,,,,
,2169,1.6910812854766846,18,,,,,,,,,
0.001,2179,,,,,,,,,,,
,2179,1.7137914896011353,18,,,,,,,,,
0.001,2189,,,,,,,,,,,
,2189,1.6665903329849243,18,,,,,,,,,
0.001,2199,,,,,,,,,,,
,2199,1.6638811826705933,18,,,,,,,,,
0.001,2209,,,,,,,,,,,
,2209,1.8565497398376465,18,,,,,,,,,
0.001,2219,,,,,,,,,,,
,2219,1.7819422483444214,18,,,,,,,,,
,2219,,18,1.5068919658660889,58.750553131103516,48.2498893737793,0.33229950070381165,10.168365478515625,,,,
0.001,2229,,,,,,,,,,,
,2229,1.7803713083267212,18,,,,,,,,,
0.001,2239,,,,,,,,,,,
,2239,1.697306513786316,18,,,,,,,,,
0.001,2249,,,,,,,,,,,
,2249,1.7130357027053833,18,,,,,,,,,
0.001,2259,,,,,,,,,,,
,2259,1.6710566282272339,18,,,,,,,,,
0.001,2269,,,,,,,,,,,
,2269,1.7859747409820557,18,,,,,,,,,
0.001,2279,,,,,,,,,,,
,2279,1.858859658241272,18,,,,,,,,,
,2279,,18,1.4458688497543335,56.97829055786133,46.07886505126953,0.24368630349636078,10.65573787689209,,,,
,2279,,18,,,,,,63.28903579711914,50.7359504699707,0.5098745226860046,12.043209075927734
0.001,2289,,,,,,,,,,,
,2289,1.7967119216918945,19,,,,,,,,,
0.001,2299,,,,,,,,,,,
,2299,1.7302074432373047,19,,,,,,,,,
0.001,2309,,,,,,,,,,,
,2309,1.725708246231079,19,,,,,,,,,
0.001,2319,,,,,,,,,,,
,2319,1.7264187335968018,19,,,,,,,,,
0.001,2329,,,,,,,,,,,
,2329,1.5771899223327637,19,,,,,,,,,
0.001,2339,,,,,,,,,,,
,2339,1.6709132194519043,19,,,,,,,,,
,2339,,19,1.3518593311309814,47.38591003417969,31.92290687561035,0.9082853198051453,14.554718971252441,,,,
0.001,2349,,,,,,,,,,,
,2349,1.5401601791381836,19,,,,,,,,,
0.001,2359,,,,,,,,,,,
,2359,1.6287438869476318,19,,,,,,,,,
0.001,2369,,,,,,,,,,,
,2369,1.738193392753601,19,,,,,,,,,
0.001,2379,,,,,,,,,,,
,2379,1.5683530569076538,19,,,,,,,,,
0.001,2389,,,,,,,,,,,
,2389,1.624923825263977,19,,,,,,,,,
0.001,2399,,,,,,,,,,,
,2399,1.5996633768081665,19,,,,,,,,,
,2399,,19,1.3517935276031494,47.762516021728516,31.43553352355957,0.8639787435531616,15.463004112243652,,,,
,2399,,19,,,,,,57.395530700683594,39.63414764404297,1.2043715715408325,16.557010650634766
0.001,2409,,,,,,,,,,,
,2409,1.5126259326934814,20,,,,,,,,,
0.001,2419,,,,,,,,,,,
,2419,1.6763657331466675,20,,,,,,,,,
0.001,2429,,,,,,,,,,,
,2429,1.5298247337341309,20,,,,,,,,,
0.001,2439,,,,,,,,,,,
,2439,1.5728877782821655,20,,,,,,,,,
0.001,2449,,,,,,,,,,,
,2449,1.5642375946044922,20,,,,,,,,,
0.001,2459,,,,,,,,,,,
,2459,1.5339722633361816,20,,,,,,,,,
,2459,,20,1.3151475191116333,45.104122161865234,26.80549430847168,0.9968985319137573,17.301727294921875,,,,
0.001,2469,,,,,,,,,,,
,2469,1.5815253257751465,20,,,,,,,,,
0.001,2479,,,,,,,,,,,
,2479,1.5908312797546387,20,,,,,,,,,
0.001,2489,,,,,,,,,,,
,2489,1.5409941673278809,20,,,,,,,,,
0.001,2499,,,,,,,,,,,
,2499,1.529970645904541,20,,,,,,,,,
0.001,2509,,,,,,,,,,,
,2509,1.6665199995040894,20,,,,,,,,,
0.001,2519,,,,,,,,,,,
,2519,1.5257585048675537,20,,,,,,,,,
,2519,,20,1.2287085056304932,41.33805847167969,22.308374404907227,1.2184315919876099,17.811254501342773,,,,
,2519,,20,,,,,,51.86842727661133,30.079307556152344,1.8670485019683838,19.922069549560547
0.001,2529,,,,,,,,,,,
,2529,1.4650654792785645,21,,,,,,,,,
0.001,2539,,,,,,,,,,,
,2539,1.4197328090667725,21,,,,,,,,,
0.001,2549,,,,,,,,,,,
,2549,1.5733802318572998,21,,,,,,,,,
0.001,2559,,,,,,,,,,,
,2559,1.4487820863723755,21,,,,,,,,,
0.001,2569,,,,,,,,,,,
,2569,1.4795161485671997,21,,,,,,,,,
0.001,2579,,,,,,,,,,,
,2579,1.4225032329559326,21,,,,,,,,,
,2579,,21,1.2141166925430298,38.39167022705078,16.149755477905273,2.0602569580078125,20.181657791137695,,,,
0.001,2589,,,,,,,,,,,
,2589,1.2978922128677368,21,,,,,,,,,
0.001,2599,,,,,,,,,,,
,2599,1.5626603364944458,21,,,,,,,,,
0.001,2609,,,,,,,,,,,
,2609,1.6237459182739258,21,,,,,,,,,
0.001,2619,,,,,,,,,,,
,2619,1.37642502784729,21,,,,,,,,,
0.001,2629,,,,,,,,,,,
,2629,1.449601173400879,21,,,,,,,,,
0.001,2639,,,,,,,,,,,
,2639,1.541722059249878,21,,,,,,,,,
,2639,,21,1.1740107536315918,38.103675842285156,16.991580963134766,1.8165706396102905,19.29552459716797,,,,
,2639,,21,,,,,,48.7497444152832,24.879085540771484,2.3484277725219727,21.52223014831543
0.001,2649,,,,,,,,,,,
,2649,1.3645412921905518,22,,,,,,,,,
0.001,2659,,,,,,,,,,,
,2659,1.4635303020477295,22,,,,,,,,,
0.001,2669,,,,,,,,,,,
,2669,1.4336209297180176,22,,,,,,,,,
0.001,2679,,,,,,,,,,,
,2679,1.4863604307174683,22,,,,,,,,,
0.001,2689,,,,,,,,,,,
,2689,1.5024157762527466,22,,,,,,,,,
0.001,2699,,,,,,,,,,,
,2699,1.41912841796875,22,,,,,,,,,
,2699,,22,1.1961579322814941,39.056270599365234,19.672130584716797,1.5728843212127686,17.811254501342773,,,,
0.001,2709,,,,,,,,,,,
,2709,1.5147020816802979,22,,,,,,,,,
0.001,2719,,,,,,,,,,,
,2719,1.5400850772857666,22,,,,,,,,,
0.001,2729,,,,,,,,,,,
,2729,1.3778111934661865,22,,,,,,,,,
0.001,2739,,,,,,,,,,,
,2739,1.3771250247955322,22,,,,,,,,,
0.001,2749,,,,,,,,,,,
,2749,1.5208227634429932,22,,,,,,,,,
0.001,2759,,,,,,,,,,,
,2759,1.374973177909851,22,,,,,,,,,
,2759,,22,1.125345230102539,37.30615997314453,18.785999298095703,1.373504638671875,17.14665412902832,,,,
,2759,,22,,,,,,46.52251434326172,22.196596145629883,2.469796895980835,21.856122970581055
0.001,2769,,,,,,,,,,,
,2769,1.4888960123062134,23,,,,,,,,,
0.001,2779,,,,,,,,,,,
,2779,1.4740939140319824,23,,,,,,,,,
0.001,2789,,,,,,,,,,,
,2789,1.5858678817749023,23,,,,,,,,,
0.001,2799,,,,,,,,,,,
,2799,1.4517936706542969,23,,,,,,,,,
0.001,2809,,,,,,,,,,,
,2809,1.5035730600357056,23,,,,,,,,,
0.001,2819,,,,,,,,,,,
,2819,1.4854357242584229,23,,,,,,,,,
,2819,,23,1.128066897392273,36.552947998046875,15.352237701416016,2.0824103355407715,19.11829948425293,,,,
0.001,2829,,,,,,,,,,,
,2829,1.4358222484588623,23,,,,,,,,,
0.001,2839,,,,,,,,,,,
,2839,1.302316427230835,23,,,,,,,,,
0.001,2849,,,,,,,,,,,
,2849,1.4777967929840088,23,,,,,,,,,
0.001,2859,,,,,,,,,,,
,2859,1.4694774150848389,23,,,,,,,,,
0.001,2869,,,,,,,,,,,
,2869,1.4621400833129883,23,,,,,,,,,
0.001,2879,,,,,,,,,,,
,2879,1.443007469177246,23,,,,,,,,,
,2879,,23,1.1252295970916748,35.11298370361328,12.162161827087402,2.4811697006225586,20.469650268554688,,,,
,2879,,23,,,,,,44.69506072998047,19.499868392944336,2.83113694190979,22.36405372619629
0.001,2889,,,,,,,,,,,
,2889,1.4843876361846924,24,,,,,,,,,
0.001,2899,,,,,,,,,,,
,2899,1.3600550889968872,24,,,,,,,,,
0.001,2909,,,,,,,,,,,
,2909,1.4515620470046997,24,,,,,,,,,
0.001,2919,,,,,,,,,,,
,2919,1.2955530881881714,24,,,,,,,,,
0.001,2929,,,,,,,,,,,
,2929,1.493159294128418,24,,,,,,,,,
0.001,2939,,,,,,,,,,,
,2939,1.4449043273925781,24,,,,,,,,,
,2939,,24,1.1077018976211548,34.69207000732422,12.560921669006348,2.658396005630493,19.47275161743164,,,,
0.001,2949,,,,,,,,,,,
,2949,1.327349066734314,24,,,,,,,,,
0.001,2959,,,,,,,,,,,
,2959,1.4294750690460205,24,,,,,,,,,
0.001,2969,,,,,,,,,,,
,2969,1.3757688999176025,24,,,,,,,,,
0.001,2979,,,,,,,,,,,
,2979,1.5609095096588135,24,,,,,,,,,
0.001,2989,,,,,,,,,,,
,2989,1.3731904029846191,24,,,,,,,,,
0.001,2999,,,,,,,,,,,
,2999,1.4264153242111206,24,,,,,,,,,
,2999,,24,1.067952275276184,35.48958969116211,13.97873306274414,2.1045634746551514,19.406291961669922,,,,
,2999,,24,,,,,,43.68313217163086,18.509057998657227,2.8428988456726074,22.3311767578125
0.001,3009,,,,,,,,,,,
,3009,1.5432286262512207,25,,,,,,,,,
0.001,3019,,,,,,,,,,,
,3019,1.2731322050094604,25,,,,,,,,,
0.001,3029,,,,,,,,,,,
,3029,1.449150562286377,25,,,,,,,,,
0.001,3039,,,,,,,,,,,
,3039,1.4694701433181763,25,,,,,,,,,
0.001,3049,,,,,,,,,,,
,3049,1.3271890878677368,25,,,,,,,,,
0.001,3059,,,,,,,,,,,
,3059,1.3868439197540283,25,,,,,,,,,
,3059,,25,1.158176302909851,37.54984664916992,16.016836166381836,1.4621179103851318,20.070890426635742,,,,
0.001,3069,,,,,,,,,,,
,3069,1.3675665855407715,25,,,,,,,,,
0.001,3079,,,,,,,,,,,
,3079,1.326173186302185,25,,,,,,,,,
0.001,3089,,,,,,,,,,,
,3089,1.4182302951812744,25,,,,,,,,,
0.001,3099,,,,,,,,,,,
,3099,1.213925838470459,25,,,,,,,,,
0.001,3109,,,,,,,,,,,
,3109,1.4082651138305664,25,,,,,,,,,
0.001,3119,,,,,,,,,,,
,3119,1.3768965005874634,25,,,,,,,,,
,3119,,25,1.026924967765808,32.18874740600586,9.525918960571289,2.4147098064422607,20.248117446899414,,,,
,3119,,25,,,,,,43.10544204711914,17.675737380981445,2.8881115913391113,22.541593551635742
0.001,3129,,,,,,,,,,,
,3129,1.232701063156128,26,,,,,,,,,
0.001,3139,,,,,,,,,,,
,3139,1.1785542964935303,26,,,,,,,,,
0.001,3149,,,,,,,,,,,
,3149,1.2555490732192993,26,,,,,,,,,
0.001,3159,,,,,,,,,,,
,3159,1.3380340337753296,26,,,,,,,,,
0.001,3169,,,,,,,,,,,
,3169,1.3647770881652832,26,,,,,,,,,
0.001,3179,,,,,,,,,,,
,3179,1.1682395935058594,26,,,,,,,,,
,3179,,26,1.0497292280197144,33.07487869262695,11.785555839538574,2.1488702297210693,19.140451431274414,,,,
0.001,3189,,,,,,,,,,,
,3189,1.3423508405685425,26,,,,,,,,,
0.001,3199,,,,,,,,,,,
,3199,1.3367114067077637,26,,,,,,,,,
0.001,3209,,,,,,,,,,,
,3209,1.278716802597046,26,,,,,,,,,
0.001,3219,,,,,,,,,,,
,3219,1.4248260259628296,26,,,,,,,,,
0.001,3229,,,,,,,,,,,
,3229,1.3518390655517578,26,,,,,,,,,
0.001,3239,,,,,,,,,,,
,3239,1.3149431943893433,26,,,,,,,,,
,3239,,26,1.0690323114395142,35.46743392944336,13.380593299865723,1.8387240171432495,20.248117446899414,,,,
,3239,,26,,,,,,41.39443588256836,16.11395263671875,3.0220534801483154,22.2584285736084
0.001,3249,,,,,,,,,,,
,3249,1.2121506929397583,27,,,,,,,,,
0.001,3259,,,,,,,,,,,
,3259,1.2975424528121948,27,,,,,,,,,
0.001,3269,,,,,,,,,,,
,3269,1.3497694730758667,27,,,,,,,,,
0.001,3279,,,,,,,,,,,
,3279,1.3417668342590332,27,,,,,,,,,
0.001,3289,,,,,,,,,,,
,3289,1.3557734489440918,27,,,,,,,,,
0.001,3299,,,,,,,,,,,
,3299,1.2771387100219727,27,,,,,,,,,
,3299,,27,1.0684460401535034,34.957908630371094,11.763402938842773,2.1488702297210693,21.045635223388672,,,,
0.001,3309,,,,,,,,,,,
,3309,1.437560796737671,27,,,,,,,,,
0.001,3319,,,,,,,,,,,
,3319,1.2668099403381348,27,,,,,,,,,
0.001,3329,,,,,,,,,,,
,3329,1.3566148281097412,27,,,,,,,,,
0.001,3339,,,,,,,,,,,
,3339,1.3869273662567139,27,,,,,,,,,
0.001,3349,,,,,,,,,,,
,3349,1.2457566261291504,27,,,,,,,,,
0.001,3359,,,,,,,,,,,
,3359,1.2603837251663208,27,,,,,,,,,
,3359,,27,1.0153813362121582,31.900753021240234,8.88347339630127,3.0350022315979004,19.982276916503906,,,,
,3359,,27,,,,,,41.626468658447266,16.32689666748047,3.0295910835266113,22.269981384277344
0.001,3369,,,,,,,,,,,
,3369,1.3022983074188232,28,,,,,,,,,
0.001,3379,,,,,,,,,,,
,3379,1.295090675354004,28,,,,,,,,,
0.001,3389,,,,,,,,,,,
,3389,1.2707405090332031,28,,,,,,,,,
0.001,3399,,,,,,,,,,,
,3399,1.2873313426971436,28,,,,,,,,,
0.001,3409,,,,,,,,,,,
,3409,1.2234609127044678,28,,,,,,,,,
0.001,3419,,,,,,,,,,,
,3419,1.1645655632019043,28,,,,,,,,,
,3419,,28,1.0061678886413574,32.29951095581055,11.010190963745117,2.259636640548706,19.029685974121094,,,,
0.001,3429,,,,,,,,,,,
,3429,1.307067632675171,28,,,,,,,,,
0.001,3439,,,,,,,,,,,
,3439,1.3468996286392212,28,,,,,,,,,
0.001,3449,,,,,,,,,,,
,3449,1.2513694763183594,28,,,,,,,,,
0.001,3459,,,,,,,,,,,
,3459,1.2104259729385376,28,,,,,,,,,
0.001,3469,,,,,,,,,,,
,3469,1.2668572664260864,28,,,,,,,,,
0.001,3479,,,,,,,,,,,
,3479,1.2672914266586304,28,,,,,,,,,
,3479,,28,1.0322959423065186,33.65086364746094,13.026141166687012,1.5507310628890991,19.073991775512695,,,,
,3479,,28,,,,,,40.40919494628906,15.151225090026855,3.0176544189453125,22.240318298339844
0.001,3489,,,,,,,,,,,
,3489,1.1428272724151611,29,,,,,,,,,
0.001,3499,,,,,,,,,,,
,3499,1.4467521905899048,29,,,,,,,,,
0.001,3509,,,,,,,,,,,
,3509,1.3081870079040527,29,,,,,,,,,
0.001,3519,,,,,,,,,,,
,3519,1.3137340545654297,29,,,,,,,,,
0.001,3529,,,,,,,,,,,
,3529,1.2857822179794312,29,,,,,,,,,
0.001,3539,,,,,,,,,,,
,3539,1.343239188194275,29,,,,,,,,,
,3539,,29,1.0080559253692627,33.58440399169922,13.690739631652832,1.860877275466919,18.032787322998047,,,,
0.001,3549,,,,,,,,,,,
,3549,1.3288105726242065,29,,,,,,,,,
0.001,3559,,,,,,,,,,,
,3559,1.2756786346435547,29,,,,,,,,,
0.001,3569,,,,,,,,,,,
,3569,1.2103453874588013,29,,,,,,,,,
0.001,3579,,,,,,,,,,,
,3579,1.2603628635406494,29,,,,,,,,,
0.001,3589,,,,,,,,,,,
,3589,1.2014002799987793,29,,,,,,,,,
0.001,3599,,,,,,,,,,,
,3599,1.2405133247375488,29,,,,,,,,,
,3599,,29,0.9691500663757324,31.457687377929688,9.12716007232666,3.0128488540649414,19.317678451538086,,,,
,3599,,29,,,,,,40.14170837402344,15.063631057739258,3.2124922275543213,21.865583419799805
0.001,3609,,,,,,,,,,,
,3609,1.1786377429962158,30,,,,,,,,,
0.001,3619,,,,,,,,,,,
,3619,1.239675760269165,30,,,,,,,,,
0.001,3629,,,,,,,,,,,
,3629,1.2060327529907227,30,,,,,,,,,
0.001,3639,,,,,,,,,,,
,3639,1.1463007926940918,30,,,,,,,,,
0.001,3649,,,,,,,,,,,
,3649,1.3182952404022217,30,,,,,,,,,
0.001,3659,,,,,,,,,,,
,3659,1.2302017211914062,30,,,,,,,,,
,3659,,30,0.9734258651733398,31.63491439819336,10.877270698547363,2.1488702297210693,18.60877227783203,,,,
0.001,3669,,,,,,,,,,,
,3669,1.3285901546478271,30,,,,,,,,,
0.001,3679,,,,,,,,,,,
,3679,1.0917798280715942,30,,,,,,,,,
0.001,3689,,,,,,,,,,,
,3689,1.2752985954284668,30,,,,,,,,,
0.001,3699,,,,,,,,,,,
,3699,1.28492271900177,30,,,,,,,,,
0.001,3709,,,,,,,,,,,
,3709,1.3508626222610474,30,,,,,,,,,
0.001,3719,,,,,,,,,,,
,3719,1.148625373840332,30,,,,,,,,,
,3719,,30,1.0102381706237793,32.27735900878906,10.124058723449707,2.5919361114501953,19.561365127563477,,,,
,3719,,30,,,,,,38.48796463012695,13.79987907409668,3.1686270236968994,21.51945686340332
0.001,3729,,,,,,,,,,,
,3729,1.413806438446045,31,,,,,,,,,
0.001,3739,,,,,,,,,,,
,3739,1.1226105690002441,31,,,,,,,,,
0.001,3749,,,,,,,,,,,
,3749,1.151559829711914,31,,,,,,,,,
0.001,3759,,,,,,,,,,,
,3759,1.1515014171600342,31,,,,,,,,,
0.001,3769,,,,,,,,,,,
,3769,1.0876388549804688,31,,,,,,,,,
0.001,3779,,,,,,,,,,,
,3779,1.2284756898880005,31,,,,,,,,,
,3779,,31,1.0360113382339478,32.10013198852539,10.921577453613281,2.680549383163452,18.49800682067871,,,,
0.001,3789,,,,,,,,,,,
,3789,1.1119929552078247,31,,,,,,,,,
0.001,3799,,,,,,,,,,,
,3799,1.2470672130584717,31,,,,,,,,,
0.001,3809,,,,,,,,,,,
,3809,1.1466954946517944,31,,,,,,,,,
0.001,3819,,,,,,,,,,,
,3819,1.2627167701721191,31,,,,,,,,,
0.001,3829,,,,,,,,,,,
,3829,1.296033263206482,31,,,,,,,,,
0.001,3839,,,,,,,,,,,
,3839,1.2817381620407104,31,,,,,,,,,
,3839,,31,1.0166734457015991,31.789987564086914,9.902525901794434,2.4147098064422607,19.47275161743164,,,,
,3839,,31,,,,,,38.06863021850586,13.685721397399902,3.2437877655029297,21.13912010192871
0.001,3849,,,,,,,,,,,
,3849,1.381943702697754,32,,,,,,,,,
0.001,3859,,,,,,,,,,,
,3859,1.144195795059204,32,,,,,,,,,
0.001,3869,,,,,,,,,,,
,3869,1.1501693725585938,32,,,,,,,,,
0.001,3879,,,,,,,,,,,
,3879,1.0433331727981567,32,,,,,,,,,
0.001,3889,,,,,,,,,,,
,3889,1.1664284467697144,32,,,,,,,,,
0.001,3899,,,,,,,,,,,
,3899,1.2382111549377441,32,,,,,,,,,
,3899,,32,0.9418975710868835,30.70447540283203,8.772706985473633,2.370403289794922,19.561365127563477,,,,
0.001,3909,,,,,,,,,,,
,3909,1.20660400390625,32,,,,,,,,,
0.001,3919,,,,,,,,,,,
,3919,1.1794745922088623,32,,,,,,,,,
0.001,3929,,,,,,,,,,,
,3929,1.2674107551574707,32,,,,,,,,,
0.001,3939,,,,,,,,,,,
,3939,1.2408099174499512,32,,,,,,,,,
0.001,3949,,,,,,,,,,,
,3949,1.3463616371154785,32,,,,,,,,,
0.001,3959,,,,,,,,,,,
,3959,1.1002973318099976,32,,,,,,,,,
,3959,,32,1.008877158164978,31.25830841064453,10.722197532653809,2.0381035804748535,18.49800682067871,,,,
,3959,,32,,,,,,37.50859832763672,12.964746475219727,3.384979486465454,21.15887451171875
0.001,3969,,,,,,,,,,,
,3969,1.3024120330810547,33,,,,,,,,,
0.001,3979,,,,,,,,,,,
,3979,1.3446354866027832,33,,,,,,,,,
0.001,3989,,,,,,,,,,,
,3989,1.2349340915679932,33,,,,,,,,,
0.001,3999,,,,,,,,,,,
,3999,1.16683828830719,33,,,,,,,,,
0.001,4009,,,,,,,,,,,
,4009,1.436166524887085,33,,,,,,,,,
0.001,4019,,,,,,,,,,,
,4019,1.2420527935028076,33,,,,,,,,,
,4019,,33,0.9572876691818237,31.856447219848633,12.472308158874512,1.4178112745285034,17.966327667236328,,,,
0.001,4029,,,,,,,,,,,
,4029,1.3186745643615723,33,,,,,,,,,
0.001,4039,,,,,,,,,,,
,4039,1.2885187864303589,33,,,,,,,,,
0.001,4049,,,,,,,,,,,
,4049,1.2807472944259644,33,,,,,,,,,
0.001,4059,,,,,,,,,,,
,4059,1.2316129207611084,33,,,,,,,,,
0.001,4069,,,,,,,,,,,
,4069,1.3211802244186401,33,,,,,,,,,
0.001,4079,,,,,,,,,,,
,4079,1.3769596815109253,33,,,,,,,,,
,4079,,33,0.9919054508209229,31.878599166870117,9.703145980834961,3.1014621257781982,19.073991775512695,,,,
,4079,,33,,,,,,38.98373031616211,14.365692138671875,3.230832815170288,21.387203216552734
0.001,4089,,,,,,,,,,,
,4089,1.2231121063232422,34,,,,,,,,,
0.001,4099,,,,,,,,,,,
,4099,1.2629990577697754,34,,,,,,,,,
0.001,4109,,,,,,,,,,,
,4109,1.1834355592727661,34,,,,,,,,,
0.001,4119,,,,,,,,,,,
,4119,1.284487009048462,34,,,,,,,,,
0.001,4129,,,,,,,,,,,
,4129,1.1137603521347046,34,,,,,,,,,
0.001,4139,,,,,,,,,,,
,4139,1.2753901481628418,34,,,,,,,,,
,4139,,34,0.9956267476081848,31.43553352355957,11.165263175964355,1.9494904279708862,18.32077980041504,,,,
0.001,4149,,,,,,,,,,,
,4149,1.256341814994812,34,,,,,,,,,
0.001,4159,,,,,,,,,,,
,4159,1.1194450855255127,34,,,,,,,,,
0.001,4169,,,,,,,,,,,
,4169,1.250394344329834,34,,,,,,,,,
0.001,4179,,,,,,,,,,,
,4179,1.2082793712615967,34,,,,,,,,,
0.001,4189,,,,,,,,,,,
,4189,1.0675256252288818,34,,,,,,,,,
0.001,4199,,,,,,,,,,,
,4199,1.0717337131500244,34,,,,,,,,,
,4199,,34,1.0060603618621826,33.07487869262695,14.776251792907715,1.4399645328521729,16.858661651611328,,,,
,4199,,34,,,,,,37.38253402709961,12.864435195922852,3.3887810707092285,21.129318237304688
0.001,4209,,,,,,,,,,,
,4209,1.0888930559158325,35,,,,,,,,,
0.001,4219,,,,,,,,,,,
,4219,1.1597356796264648,35,,,,,,,,,
0.001,4229,,,,,,,,,,,
,4229,1.1176027059555054,35,,,,,,,,,
0.001,4239,,,,,,,,,,,
,4239,1.0952354669570923,35,,,,,,,,,
0.001,4249,,,,,,,,,,,
,4249,1.1625137329101562,35,,,,,,,,,
0.001,4259,,,,,,,,,,,
,4259,1.3080514669418335,35,,,,,,,,,
,4259,,35,0.9435428380966187,29.109437942504883,8.329641342163086,2.4147098064422607,18.36508560180664,,,,
0.001,4269,,,,,,,,,,,
,4269,1.159385323524475,35,,,,,,,,,
0.001,4279,,,,,,,,,,,
,4279,1.18800950050354,35,,,,,,,,,
0.001,4289,,,,,,,,,,,
,4289,1.2568107843399048,35,,,,,,,,,
0.001,4299,,,,,,,,,,,
,4299,1.3295753002166748,35,,,,,,,,,
0.001,4309,,,,,,,,,,,
,4309,1.2003366947174072,35,,,,,,,,,
0.001,4319,,,,,,,,,,,
,4319,1.1838712692260742,35,,,,,,,,,
,4319,,35,0.977554440498352,31.546300888061523,12.981834411621094,1.7722641229629517,16.79220199584961,,,,
,4319,,35,,,,,,37.30299758911133,12.789913177490234,3.259418249130249,21.253664016723633
0.001,4329,,,,,,,,,,,
,4329,1.1841413974761963,36,,,,,,,,,
0.001,4339,,,,,,,,,,,
,4339,1.2309321165084839,36,,,,,,,,,
0.001,4349,,,,,,,,,,,
,4349,1.2074851989746094,36,,,,,,,,,
0.001,4359,,,,,,,,,,,
,4359,1.077965497970581,36,,,,,,,,,
0.001,4369,,,,,,,,,,,
,4369,1.0356779098510742,36,,,,,,,,,
0.001,4379,,,,,,,,,,,
,4379,1.06815505027771,36,,,,,,,,,
,4379,,36,0.958827018737793,31.058927536010742,10.10190486907959,2.5033230781555176,18.453699111938477,,,,
0.001,4389,,,,,,,,,,,
,4389,1.1140406131744385,36,,,,,,,,,
0.001,4399,,,,,,,,,,,
,4399,1.1647357940673828,36,,,,,,,,,
0.001,4409,,,,,,,,,,,
,4409,1.2537951469421387,36,,,,,,,,,
0.001,4419,,,,,,,,,,,
,4419,1.1746768951416016,36,,,,,,,,,
0.001,4429,,,,,,,,,,,
,4429,1.1717616319656372,36,,,,,,,,,
0.001,4439,,,,,,,,,,,
,4439,1.3062769174575806,36,,,,,,,,,
,4439,,36,0.9345358610153198,29.66326904296875,7.9530348777771,2.5033230781555176,19.206911087036133,,,,
,4439,,36,,,,,,36.683685302734375,12.465076446533203,3.253554344177246,20.965055465698242
0.001,4449,,,,,,,,,,,
,4449,1.169999122619629,37,,,,,,,,,
0.001,4459,,,,,,,,,,,
,4459,1.1647666692733765,37,,,,,,,,,
0.001,4469,,,,,,,,,,,
,4469,1.0369917154312134,37,,,,,,,,,
0.001,4479,,,,,,,,,,,
,4479,1.0067064762115479,37,,,,,,,,,
0.001,4489,,,,,,,,,,,
,4489,1.148711085319519,37,,,,,,,,,
0.001,4499,,,,,,,,,,,
,4499,1.0838687419891357,37,,,,,,,,,
,4499,,37,0.8782593607902527,28.001771926879883,8.661940574645996,2.348249912261963,16.991580963134766,,,,
0.001,4509,,,,,,,,,,,
,4509,1.0849089622497559,37,,,,,,,,,
0.001,4519,,,,,,,,,,,
,4519,1.0940965414047241,37,,,,,,,,,
0.001,4529,,,,,,,,,,,
,4529,1.295534610748291,37,,,,,,,,,
0.001,4539,,,,,,,,,,,
,4539,1.138449788093567,37,,,,,,,,,
0.001,4549,,,,,,,,,,,
,4549,1.2258853912353516,37,,,,,,,,,
0.001,4559,,,,,,,,,,,
,4559,1.1383798122406006,37,,,,,,,,,
,4559,,37,0.9736826419830322,31.413379669189453,9.570225715637207,2.4147098064422607,19.428443908691406,,,,
,4559,,37,,,,,,36.304325103759766,11.808113098144531,3.4096081256866455,21.086605072021484
0.001,4569,,,,,,,,,,,
,4569,1.06227707862854,38,,,,,,,,,
0.001,4579,,,,,,,,,,,
,4579,1.0938478708267212,38,,,,,,,,,
0.001,4589,,,,,,,,,,,
,4589,1.1951045989990234,38,,,,,,,,,
0.001,4599,,,,,,,,,,,
,4599,1.157788872718811,38,,,,,,,,,
0.001,4609,,,,,,,,,,,
,4609,1.1331641674041748,38,,,,,,,,,
0.001,4619,,,,,,,,,,,
,4619,1.084869146347046,38,,,,,,,,,
,4619,,38,0.9329012036323547,29.685422897338867,9.016393661499023,2.5033230781555176,18.165706634521484,,,,
0.001,4629,,,,,,,,,,,
,4629,1.0782139301300049,38,,,,,,,,,
0.001,4639,,,,,,,,,,,
,4639,1.1234989166259766,38,,,,,,,,,
0.001,4649,,,,,,,,,,,
,4649,1.1450283527374268,38,,,,,,,,,
0.001,4659,,,,,,,,,,,
,4659,1.317528486251831,38,,,,,,,,,
0.001,4669,,,,,,,,,,,
,4669,1.2031662464141846,38,,,,,,,,,
0.001,4679,,,,,,,,,,,
,4679,1.0558111667633057,38,,,,,,,,,
,4679,,38,0.9118645787239075,28.223304748535156,7.820115089416504,2.6362428665161133,17.76694679260254,,,,
,4679,,38,,,,,,35.6789436340332,11.326277732849121,3.4510719776153564,20.901594161987305
0.001,4689,,,,,,,,,,,
,4689,1.109364628791809,39,,,,,,,,,
0.001,4699,,,,,,,,,,,
,4699,0.8854286670684814,39,,,,,,,,,
0.001,4709,,,,,,,,,,,
,4709,1.1513257026672363,39,,,,,,,,,
0.001,4719,,,,,,,,,,,
,4719,1.1527436971664429,39,,,,,,,,,
0.001,4729,,,,,,,,,,,
,4729,1.2227704524993896,39,,,,,,,,,
0.001,4739,,,,,,,,,,,
,4739,1.1495893001556396,39,,,,,,,,,
,4739,,39,0.9178479909896851,30.52724838256836,11.785555839538574,1.8387240171432495,16.902969360351562,,,,
0.001,4749,,,,,,,,,,,
,4749,1.1245535612106323,39,,,,,,,,,
0.001,4759,,,,,,,,,,,
,4759,1.3337421417236328,39,,,,,,,,,
0.001,4769,,,,,,,,,,,
,4769,1.1527605056762695,39,,,,,,,,,
0.001,4779,,,,,,,,,,,
,4779,1.0133461952209473,39,,,,,,,,,
0.001,4789,,,,,,,,,,,
,4789,1.2219867706298828,39,,,,,,,,,
0.001,4799,,,,,,,,,,,
,4799,1.265444040298462,39,,,,,,,,,
,4799,,39,0.9333527684211731,28.99867057800293,8.063801765441895,3.4559149742126465,17.478954315185547,,,,
,4799,,39,,,,,,34.97880554199219,11.13343620300293,3.4143455028533936,20.4310245513916
0.001,4809,,,,,,,,,,,
,4809,1.0769455432891846,40,,,,,,,,,
0.001,4819,,,,,,,,,,,
,4819,1.1410797834396362,40,,,,,,,,,
0.001,4829,,,,,,,,,,,
,4829,1.0231590270996094,40,,,,,,,,,
0.001,4839,,,,,,,,,,,
,4839,1.1481397151947021,40,,,,,,,,,
0.001,4849,,,,,,,,,,,
,4849,0.9574651718139648,40,,,,,,,,,
0.001,4859,,,,,,,,,,,
,4859,1.2131848335266113,40,,,,,,,,,
,4859,,40,0.9160336852073669,29.86264991760254,10.589278221130371,2.1488702297210693,17.124502182006836,,,,
0.001,4869,,,,,,,,,,,
,4869,1.1830346584320068,40,,,,,,,,,
0.001,4879,,,,,,,,,,,
,4879,1.1457183361053467,40,,,,,,,,,
0.001,4889,,,,,,,,,,,
,4889,1.237483024597168,40,,,,,,,,,
0.001,4899,,,,,,,,,,,
,4899,1.560481309890747,40,,,,,,,,,
0.001,4909,,,,,,,,,,,
,4909,1.4707541465759277,40,,,,,,,,,
0.001,4919,,,,,,,,,,,
,4919,1.3580551147460938,40,,,,,,,,,
,4919,,40,1.0545419454574585,33.4293327331543,10.256978034973145,2.4811697006225586,20.69118309020996,,,,
,4919,,40,,,,,,37.738800048828125,13.069554328918457,3.520256996154785,21.148990631103516
0.001,4929,,,,,,,,,,,
,4929,1.4410704374313354,41,,,,,,,,,
0.001,4939,,,,,,,,,,,
,4939,1.138016939163208,41,,,,,,,,,
0.001,4949,,,,,,,,,,,
,4949,1.2511839866638184,41,,,,,,,,,
0.001,4959,,,,,,,,,,,
,4959,1.1435328722000122,41,,,,,,,,,
0.001,4969,,,,,,,,,,,
,4969,1.0578972101211548,41,,,,,,,,,
0.001,4979,,,,,,,,,,,
,4979,1.0820393562316895,41,,,,,,,,,
,4979,,41,0.9037914872169495,28.311918258666992,8.728400230407715,2.215330123901367,17.368186950683594,,,,
0.001,4989,,,,,,,,,,,
,4989,1.1362358331680298,41,,,,,,,,,
0.001,4999,,,,,,,,,,,
,4999,1.2590299844741821,41,,,,,,,,,
0.001,5009,,,,,,,,,,,
,5009,1.1090049743652344,41,,,,,,,,,
0.001,5019,,,,,,,,,,,
,5019,1.196054458618164,41,,,,,,,,,
0.001,5029,,,,,,,,,,,
,5029,1.2300280332565308,41,,,,,,,,,
0.001,5039,,,,,,,,,,,
,5039,1.2246930599212646,41,,,,,,,,,
,5039,,41,0.9270358681678772,30.10633659362793,10.01329231262207,1.8387240171432495,18.25432014465332,,,,
,5039,,41,,,,,,36.676025390625,12.242314338684082,3.485811710357666,20.947898864746094
0.001,5049,,,,,,,,,,,
,5049,1.122384786605835,42,,,,,,,,,
0.001,5059,,,,,,,,,,,
,5059,1.127048134803772,42,,,,,,,,,
0.001,5069,,,,,,,,,,,
,5069,1.0757787227630615,42,,,,,,,,,
0.001,5079,,,,,,,,,,,
,5079,1.0833206176757812,42,,,,,,,,,
0.001,5089,,,,,,,,,,,
,5089,1.1793551445007324,42,,,,,,,,,
0.001,5099,,,,,,,,,,,
,5099,1.0831502676010132,42,,,,,,,,,
,5099,,42,0.8869295120239258,27.204254150390625,7.5542755126953125,2.326096534729004,17.323881149291992,,,,
0.001,5109,,,,,,,,,,,
,5109,1.1196794509887695,42,,,,,,,,,
0.001,5119,,,,,,,,,,,
,5119,1.0939459800720215,42,,,,,,,,,
0.001,5129,,,,,,,,,,,
,5129,1.1607189178466797,42,,,,,,,,,
0.001,5139,,,,,,,,,,,
,5139,1.1995446681976318,42,,,,,,,,,
0.001,5149,,,,,,,,,,,
,5149,1.0477503538131714,42,,,,,,,,,
0.001,5159,,,,,,,,,,,
,5159,1.2546706199645996,42,,,,,,,,,
,5159,,42,0.9376192092895508,29.59680938720703,10.035445213317871,1.860877275466919,17.70048713684082,,,,
,5159,,42,,,,,,35.942386627197266,11.664255142211914,3.376748561859131,20.901384353637695
0.001,5169,,,,,,,,,,,
,5169,1.1734035015106201,43,,,,,,,,,
0.001,5179,,,,,,,,,,,
,5179,1.046576738357544,43,,,,,,,,,
0.001,5189,,,,,,,,,,,
,5189,1.1664578914642334,43,,,,,,,,,
0.001,5199,,,,,,,,,,,
,5199,0.981741726398468,43,,,,,,,,,
0.001,5209,,,,,,,,,,,
,5209,1.0665459632873535,43,,,,,,,,,
0.001,5219,,,,,,,,,,,
,5219,1.0944793224334717,43,,,,,,,,,
,5219,,43,0.9473103880882263,30.327869415283203,9.304386138916016,2.281790018081665,18.74169158935547,,,,
0.001,5229,,,,,,,,,,,
,5229,1.2997403144836426,43,,,,,,,,,
0.001,5239,,,,,,,,,,,
,5239,1.0861424207687378,43,,,,,,,,,
0.001,5249,,,,,,,,,,,
,5249,1.1326274871826172,43,,,,,,,,,
0.001,5259,,,,,,,,,,,
,5259,1.2235863208770752,43,,,,,,,,,
0.001,5269,,,,,,,,,,,
,5269,1.13192617893219,43,,,,,,,,,
0.001,5279,,,,,,,,,,,
,5279,1.219234585762024,43,,,,,,,,,
,5279,,43,0.9788948893547058,31.457687377929688,12.494462013244629,1.860877275466919,17.10234832763672,,,,
,5279,,43,,,,,,35.75309371948242,11.41234302520752,3.384737730026245,20.956012725830078
0.001,5289,,,,,,,,,,,
,5289,1.1741142272949219,44,,,,,,,,,
0.001,5299,,,,,,,,,,,
,5299,1.1531546115875244,44,,,,,,,,,
0.001,5309,,,,,,,,,,,
,5309,1.1101018190383911,44,,,,,,,,,
0.001,5319,,,,,,,,,,,
,5319,1.2011295557022095,44,,,,,,,,,
0.001,5329,,,,,,,,,,,
,5329,1.1805751323699951,44,,,,,,,,,
0.001,5339,,,,,,,,,,,
,5339,1.0914901494979858,44,,,,,,,,,
,5339,,44,0.8802874088287354,27.913158416748047,8.21887493133545,2.5033230781555176,17.190961837768555,,,,
0.001,5349,,,,,,,,,,,
,5349,1.009252905845642,44,,,,,,,,,
0.001,5359,,,,,,,,,,,
,5359,1.1466615200042725,44,,,,,,,,,
0.001,5369,,,,,,,,,,,
,5369,1.3339059352874756,44,,,,,,,,,
0.001,5379,,,,,,,,,,,
,5379,1.3411979675292969,44,,,,,,,,,
0.001,5389,,,,,,,,,,,
,5389,1.2556638717651367,44,,,,,,,,,
0.001,5399,,,,,,,,,,,
,5399,1.1431148052215576,44,,,,,,,,,
,5399,,44,0.9742303490638733,30.615861892700195,11.076650619506836,2.1488702297210693,17.39034080505371,,,,
,5399,,44,,,,,,35.727176666259766,11.359848022460938,3.3724117279052734,20.994916915893555
0.001,5409,,,,,,,,,,,
,5409,1.190762996673584,45,,,,,,,,,
0.001,5419,,,,,,,,,,,
,5419,1.0993467569351196,45,,,,,,,,,
0.001,5429,,,,,,,,,,,
,5429,1.1387920379638672,45,,,,,,,,,
0.001,5439,,,,,,,,,,,
,5439,1.112168788909912,45,,,,,,,,,
0.001,5449,,,,,,,,,,,
,5449,1.0433886051177979,45,,,,,,,,,
0.001,5459,,,,,,,,,,,
,5459,1.1768996715545654,45,,,,,,,,,
,5459,,45,0.900270938873291,29.530349731445312,10.74435043334961,1.617190957069397,17.168807983398438,,,,
0.001,5469,,,,,,,,,,,
,5469,1.158914566040039,45,,,,,,,,,
0.001,5479,,,,,,,,,,,
,5479,0.9066454768180847,45,,,,,,,,,
0.001,5489,,,,,,,,,,,
,5489,1.106368899345398,45,,,,,,,,,
0.001,5499,,,,,,,,,,,
,5499,1.0475716590881348,45,,,,,,,,,
0.001,5509,,,,,,,,,,,
,5509,1.13958740234375,45,,,,,,,,,
0.001,5519,,,,,,,,,,,
,5519,0.9336293339729309,45,,,,,,,,,
,5519,,45,0.8273236155509949,26.207355499267578,7.111209392547607,2.281790018081665,16.814355850219727,,,,
,5519,,45,,,,,,35.03168869018555,11.005786895751953,3.3893635272979736,20.636539459228516
0.001,5529,,,,,,,,,,,
,5529,0.9539637565612793,46,,,,,,,,,
0.001,5539,,,,,,,,,,,
,5539,1.1031767129898071,46,,,,,,,,,
0.001,5549,,,,,,,,,,,
,5549,1.244960904121399,46,,,,,,,,,
0.001,5559,,,,,,,,,,,
,5559,1.065868616104126,46,,,,,,,,,
0.001,5569,,,,,,,,,,,
,5569,1.002365231513977,46,,,,,,,,,
0.001,5579,,,,,,,,,,,
,5579,1.0865041017532349,46,,,,,,,,,
,5579,,46,0.8697981834411621,28.356225967407227,8.506867408752441,2.1488702297210693,17.70048713684082,,,,
0.001,5589,,,,,,,,,,,
,5589,1.0600645542144775,46,,,,,,,,,
0.001,5599,,,,,,,,,,,
,5599,1.050074815750122,46,,,,,,,,,
0.001,5609,,,,,,,,,,,
,5609,1.0392820835113525,46,,,,,,,,,
0.001,5619,,,,,,,,,,,
,5619,1.0480690002441406,46,,,,,,,,,
0.001,5629,,,,,,,,,,,
,5629,0.9910820722579956,46,,,,,,,,,
0.001,5639,,,,,,,,,,,
,5639,1.3117139339447021,46,,,,,,,,,
,5639,,46,0.9629038572311401,30.505094528198242,11.32033634185791,1.8387240171432495,17.34603500366211,,,,
,5639,,46,,,,,,33.13556671142578,9.779847145080566,3.4801478385925293,19.875572204589844
0.001,5649,,,,,,,,,,,
,5649,1.0593985319137573,47,,,,,,,,,
0.001,5659,,,,,,,,,,,
,5659,1.405193567276001,47,,,,,,,,,
0.001,5669,,,,,,,,,,,
,5669,1.1042969226837158,47,,,,,,,,,
0.001,5679,,,,,,,,,,,
,5679,1.1949467658996582,47,,,,,,,,,
0.001,5689,,,,,,,,,,,
,5689,1.1233865022659302,47,,,,,,,,,
0.001,5699,,,,,,,,,,,
,5699,1.0367844104766846,47,,,,,,,,,
,5699,,47,0.9336305856704712,28.75498390197754,7.089056491851807,2.724855899810791,18.941072463989258,,,,
0.001,5709,,,,,,,,,,,
,5709,1.162560224533081,47,,,,,,,,,
0.001,5719,,,,,,,,,,,
,5719,1.033970832824707,47,,,,,,,,,
0.001,5729,,,,,,,,,,,
,5729,1.0737649202346802,47,,,,,,,,,
0.001,5739,,,,,,,,,,,
,5739,1.1022789478302002,47,,,,,,,,,
0.001,5749,,,,,,,,,,,
,5749,1.1061087846755981,47,,,,,,,,,
0.001,5759,,,,,,,,,,,
,5759,0.9875279068946838,47,,,,,,,,,
,5759,,47,0.9309095740318298,29.24235725402832,6.6681437492370605,2.9685423374176025,19.605670928955078,,,,
,5759,,47,,,,,,34.49445724487305,10.83622932434082,3.4737162590026855,20.184511184692383
0.001,5769,,,,,,,,,,,
,5769,1.0598502159118652,48,,,,,,,,,
0.001,5779,,,,,,,,,,,
,5779,0.9504382610321045,48,,,,,,,,,
0.001,5789,,,,,,,,,,,
,5789,0.913095235824585,48,,,,,,,,,
0.001,5799,,,,,,,,,,,
,5799,1.0663642883300781,48,,,,,,,,,
0.001,5809,,,,,,,,,,,
,5809,1.042957067489624,48,,,,,,,,,
0.001,5819,,,,,,,,,,,
,5819,1.0684125423431396,48,,,,,,,,,
,5819,,48,0.8848127722740173,27.868852615356445,8.750554084777832,2.326096534729004,16.79220199584961,,,,
0.001,5829,,,,,,,,,,,
,5829,1.0479698181152344,48,,,,,,,,,
0.001,5839,,,,,,,,,,,
,5839,1.0723142623901367,48,,,,,,,,,
0.001,5849,,,,,,,,,,,
,5849,1.0669068098068237,48,,,,,,,,,
0.001,5859,,,,,,,,,,,
,5859,1.0312309265136719,48,,,,,,,,,
0.001,5869,,,,,,,,,,,
,5869,0.9605323672294617,48,,,,,,,,,
0.001,5879,,,,,,,,,,,
,5879,1.0242377519607544,48,,,,,,,,,
,5879,,48,0.865205705165863,26.8719539642334,8.24102783203125,2.1267168521881104,16.504209518432617,,,,
,5879,,48,,,,,,32.84811782836914,9.806371688842773,3.3548476696014404,19.686899185180664
0.001,5889,,,,,,,,,,,
,5889,1.0382200479507446,49,,,,,,,,,
0.001,5899,,,,,,,,,,,
,5899,1.0450749397277832,49,,,,,,,,,
0.001,5909,,,,,,,,,,,
,5909,1.068786859512329,49,,,,,,,,,
0.001,5919,,,,,,,,,,,
,5919,1.1429145336151123,49,,,,,,,,,
0.001,5929,,,,,,,,,,,
,5929,0.9671823978424072,49,,,,,,,,,
0.001,5939,,,,,,,,,,,
,5939,1.0599490404129028,49,,,,,,,,,
,5939,,49,0.8684167861938477,26.960567474365234,5.427558898925781,2.791315793991089,18.74169158935547,,,,
0.001,5949,,,,,,,,,,,
,5949,0.9400782585144043,49,,,,,,,,,
0.001,5959,,,,,,,,,,,
,5959,1.0009410381317139,49,,,,,,,,,
0.001,5969,,,,,,,,,,,
,5969,1.1404964923858643,49,,,,,,,,,
0.001,5979,,,,,,,,,,,
,5979,1.011684775352478,49,,,,,,,,,
0.001,5989,,,,,,,,,,,
,5989,1.0446655750274658,49,,,,,,,,,
0.001,5999,,,,,,,,,,,
,5999,1.1035926342010498,49,,,,,,,,,
,5999,,49,0.8436282873153687,25.498449325561523,5.671245098114014,3.212228536605835,16.614974975585938,,,,
,5999,,49,,,,,,33.11712646484375,9.701770782470703,3.5260345935821533,19.889320373535156
0.001,6009,,,,,,,,,,,
,6009,1.086942195892334,50,,,,,,,,,
0.001,6019,,,,,,,,,,,
,6019,1.1402771472930908,50,,,,,,,,,
0.001,6029,,,,,,,,,,,
,6029,1.0509445667266846,50,,,,,,,,,
0.001,6039,,,,,,,,,,,
,6039,1.042952060699463,50,,,,,,,,,
0.001,6049,,,,,,,,,,,
,6049,0.9913885593414307,50,,,,,,,,,
0.001,6059,,,,,,,,,,,
,6059,1.0934170484542847,50,,,,,,,,,
,6059,,50,0.9443747401237488,28.75498390197754,9.481613159179688,2.1045634746551514,17.168807983398438,,,,
0.001,6069,,,,,,,,,,,
,6069,1.0168941020965576,50,,,,,,,,,
0.001,6079,,,,,,,,,,,
,6079,0.991511881351471,50,,,,,,,,,
0.001,6089,,,,,,,,,,,
,6089,1.0818228721618652,50,,,,,,,,,
0.001,6099,,,,,,,,,,,
,6099,1.1396169662475586,50,,,,,,,,,
0.001,6109,,,,,,,,,,,
,6109,1.0586540699005127,50,,,,,,,,,
0.001,6119,,,,,,,,,,,
,6119,1.1340383291244507,50,,,,,,,,,
,6119,,50,0.8783035278320312,26.384580612182617,5.4940185546875,3.278688430786133,17.611873626708984,,,,
,6119,,50,,,,,,33.71238708496094,10.319585800170898,3.507615327835083,19.88518524169922
0.001,6129,,,,,,,,,,,
,6129,1.0875482559204102,51,,,,,,,,,
0.001,6139,,,,,,,,,,,
,6139,1.069441318511963,51,,,,,,,,,
0.001,6149,,,,,,,,,,,
,6149,1.0729844570159912,51,,,,,,,,,
0.001,6159,,,,,,,,,,,
,6159,1.0136892795562744,51,,,,,,,,,
0.001,6169,,,,,,,,,,,
,6169,0.9330387115478516,51,,,,,,,,,
0.001,6179,,,,,,,,,,,
,6179,1.1214160919189453,51,,,,,,,,,
,6179,,51,0.8728494644165039,26.539653778076172,5.250332355499268,3.190075397491455,18.099246978759766,,,,
0.001,6189,,,,,,,,,,,
,6189,1.1277952194213867,51,,,,,,,,,
0.001,6199,,,,,,,,,,,
,6199,0.922481894493103,51,,,,,,,,,
0.001,6209,,,,,,,,,,,
,6209,1.1205592155456543,51,,,,,,,,,
0.001,6219,,,,,,,,,,,
,6219,1.1046468019485474,51,,,,,,,,,
0.001,6229,,,,,,,,,,,
,6229,1.0848498344421387,51,,,,,,,,,
0.001,6239,,,,,,,,,,,
,6239,1.1696432828903198,51,,,,,,,,,
,6239,,51,0.9477556943893433,27.093486785888672,5.338945388793945,3.278688430786133,18.475852966308594,,,,
,6239,,51,,,,,,32.8786506652832,9.853292465209961,3.491854190826416,19.533504486083984
0.001,6249,,,,,,,,,,,
,6249,0.9711350202560425,52,,,,,,,,,
0.001,6259,,,,,,,,,,,
,6259,0.9851332902908325,52,,,,,,,,,
0.001,6269,,,,,,,,,,,
,6269,1.0251201391220093,52,,,,,,,,,
0.001,6279,,,,,,,,,,,
,6279,1.0703450441360474,52,,,,,,,,,
0.001,6289,,,,,,,,,,,
,6289,1.1001964807510376,52,,,,,,,,,
0.001,6299,,,,,,,,,,,
,6299,1.2536019086837769,52,,,,,,,,,
,6299,,52,0.9286080002784729,28.112539291381836,7.6207356452941895,2.6362428665161133,17.855560302734375,,,,
0.001,6309,,,,,,,,,,,
,6309,1.1898696422576904,52,,,,,,,,,
0.001,6319,,,,,,,,,,,
,6319,0.9289237260818481,52,,,,,,,,,
0.001,6329,,,,,,,,,,,
,6329,1.169421672821045,52,,,,,,,,,
0.001,6339,,,,,,,,,,,
,6339,1.0335628986358643,52,,,,,,,,,
0.001,6349,,,,,,,,,,,
,6349,1.0263638496398926,52,,,,,,,,,
0.001,6359,,,,,,,,,,,
,6359,1.154467225074768,52,,,,,,,,,
,6359,,52,0.9035730957984924,28.33407211303711,9.304386138916016,1.9716438055038452,17.058042526245117,,,,
,6359,,52,,,,,,34.2525520324707,10.610733032226562,3.5314040184020996,20.110416412353516
0.001,6369,,,,,,,,,,,
,6369,0.957384467124939,53,,,,,,,,,
0.001,6379,,,,,,,,,,,
,6379,1.048545241355896,53,,,,,,,,,
0.001,6389,,,,,,,,,,,
,6389,1.120762586593628,53,,,,,,,,,
0.001,6399,,,,,,,,,,,
,6399,1.05085027217865,53,,,,,,,,,
0.001,6409,,,,,,,,,,,
,6409,1.0671067237854004,53,,,,,,,,,
0.001,6419,,,,,,,,,,,
,6419,1.1025819778442383,53,,,,,,,,,
,6419,,53,0.9868870973587036,30.726627349853516,11.253876686096191,1.4178112745285034,18.05493927001953,,,,
0.001,6429,,,,,,,,,,,
,6429,1.0913641452789307,53,,,,,,,,,
0.001,6439,,,,,,,,,,,
,6439,0.9689959287643433,53,,,,,,,,,
0.001,6449,,,,,,,,,,,
,6449,1.0726239681243896,53,,,,,,,,,
0.001,6459,,,,,,,,,,,
,6459,1.042076826095581,53,,,,,,,,,
0.001,6469,,,,,,,,,,,
,6469,1.0211517810821533,53,,,,,,,,,
0.001,6479,,,,,,,,,,,
,6479,0.9982978105545044,53,,,,,,,,,
,6479,,53,0.8917440176010132,27.558706283569336,7.31058931350708,2.4590163230895996,17.789100646972656,,,,
,6479,,53,,,,,,33.15708923339844,9.908161163330078,3.4449996948242188,19.803930282592773
0.001,6489,,,,,,,,,,,
,6489,1.121566653251648,54,,,,,,,,,
0.001,6499,,,,,,,,,,,
,6499,0.9538493156433105,54,,,,,,,,,
0.001,6509,,,,,,,,,,,
,6509,1.0119364261627197,54,,,,,,,,,
0.001,6519,,,,,,,,,,,
,6519,1.0459840297698975,54,,,,,,,,,
0.001,6529,,,,,,,,,,,
,6529,1.0534205436706543,54,,,,,,,,,
0.001,6539,,,,,,,,,,,
,6539,1.0385539531707764,54,,,,,,,,,
,6539,,54,0.8299894332885742,25.03322982788086,6.978289604187012,2.0602569580078125,15.994683265686035,,,,
0.001,6549,,,,,,,,,,,
,6549,0.9808715581893921,54,,,,,,,,,
0.001,6559,,,,,,,,,,,
,6559,1.1519581079483032,54,,,,,,,,,
0.001,6569,,,,,,,,,,,
,6569,1.0972901582717896,54,,,,,,,,,
0.001,6579,,,,,,,,,,,
,6579,1.1946953535079956,54,,,,,,,,,
0.001,6589,,,,,,,,,,,
,6589,1.1255731582641602,54,,,,,,,,,
0.001,6599,,,,,,,,,,,
,6599,0.9109949469566345,54,,,,,,,,,
,6599,,54,0.9044824838638306,27.315019607543945,7.842268466949463,2.259636640548706,17.213115692138672,,,,
,6599,,54,,,,,,32.905784606933594,10.02862548828125,3.4681127071380615,19.40904426574707
0.001,6609,,,,,,,,,,,
,6609,0.9959352016448975,55,,,,,,,,,
0.001,6619,,,,,,,,,,,
,6619,1.165449857711792,55,,,,,,,,,
0.001,6629,,,,,,,,,,,
,6629,1.1656337976455688,55,,,,,,,,,
0.001,6639,,,,,,,,,,,
,6639,0.8823009133338928,55,,,,,,,,,
0.001,6649,,,,,,,,,,,
,6649,0.9472153186798096,55,,,,,,,,,
0.001,6659,,,,,,,,,,,
,6659,1.1505250930786133,55,,,,,,,,,
,6659,,55,1.049910306930542,31.302614212036133,10.855117797851562,2.4147098064422607,18.032787322998047,,,,
0.001,6669,,,,,,,,,,,
,6669,1.1034817695617676,55,,,,,,,,,
0.001,6679,,,,,,,,,,,
,6679,1.0874651670455933,55,,,,,,,,,
0.001,6689,,,,,,,,,,,
,6689,0.9552765488624573,55,,,,,,,,,
0.001,6699,,,,,,,,,,,
,6699,1.0788308382034302,55,,,,,,,,,
0.001,6709,,,,,,,,,,,
,6709,1.1204099655151367,55,,,,,,,,,
0.001,6719,,,,,,,,,,,
,6719,1.0610829591751099,55,,,,,,,,,
,6719,,55,0.9250108003616333,28.555604934692383,10.832963943481445,1.6614975929260254,16.06114387512207,,,,
,6719,,55,,,,,,33.0529670715332,10.024169921875,3.585387706756592,19.443408966064453
0.001,6729,,,,,,,,,,,
,6729,1.1345468759536743,56,,,,,,,,,
0.001,6739,,,,,,,,,,,
,6739,0.9256166219711304,56,,,,,,,,,
0.001,6749,,,,,,,,,,,
,6749,1.0923588275909424,56,,,,,,,,,
0.001,6759,,,,,,,,,,,
,6759,1.01436185836792,56,,,,,,,,,
0.001,6769,,,,,,,,,,,
,6769,1.0109846591949463,56,,,,,,,,,
0.001,6779,,,,,,,,,,,
,6779,0.9974993467330933,56,,,,,,,,,
,6779,,56,0.8751600980758667,26.42888832092285,6.756756782531738,2.3925564289093018,17.27957534790039,,,,
0.001,6789,,,,,,,,,,,
,6789,1.0238670110702515,56,,,,,,,,,
0.001,6799,,,,,,,,,,,
,6799,0.9837748408317566,56,,,,,,,,,
0.001,6809,,,,,,,,,,,
,6809,1.0590077638626099,56,,,,,,,,,
0.001,6819,,,,,,,,,,,
,6819,0.958716869354248,56,,,,,,,,,
0.001,6829,,,,,,,,,,,
,6829,1.1059231758117676,56,,,,,,,,,
0.001,6839,,,,,,,,,,,
,6839,0.9909727573394775,56,,,,,,,,,
,6839,,56,0.8555884957313538,26.49534797668457,7.266282558441162,2.5919361114501953,16.637128829956055,,,,
,6839,,56,,,,,,32.22649002075195,9.672490119934082,3.3879871368408203,19.166011810302734
0.001,6849,,,,,,,,,,,
,6849,0.8991020917892456,57,,,,,,,,,
0.001,6859,,,,,,,,,,,
,6859,1.165175437927246,57,,,,,,,,,
0.001,6869,,,,,,,,,,,
,6869,1.0540193319320679,57,,,,,,,,,
0.001,6879,,,,,,,,,,,
,6879,1.1447196006774902,57,,,,,,,,,
0.001,6889,,,,,,,,,,,
,6889,0.9122307300567627,57,,,,,,,,,
0.001,6899,,,,,,,,,,,
,6899,1.0412074327468872,57,,,,,,,,,
,6899,,57,0.8473646640777588,26.716880798339844,6.889676570892334,2.680549383163452,17.14665412902832,,,,
0.001,6909,,,,,,,,,,,
,6909,0.9130796194076538,57,,,,,,,,,
0.001,6919,,,,,,,,,,,
,6919,1.0828925371170044,57,,,,,,,,,
0.001,6929,,,,,,,,,,,
,6929,0.8953707218170166,57,,,,,,,,,
0.001,6939,,,,,,,,,,,
,6939,0.8438248038291931,57,,,,,,,,,
0.001,6949,,,,,,,,,,,
,6949,1.0050941705703735,57,,,,,,,,,
0.001,6959,,,,,,,,,,,
,6959,1.078972578048706,57,,,,,,,,,
,6959,,57,0.9059842228889465,28.201152801513672,10.10190486907959,1.7501107454299927,16.349136352539062,,,,
,6959,,57,,,,,,31.45444679260254,8.895413398742676,3.4186620712280273,19.140371322631836
0.001,6969,,,,,,,,,,,
,6969,1.1068401336669922,58,,,,,,,,,
0.001,6979,,,,,,,,,,,
,6979,1.068472146987915,58,,,,,,,,,
0.001,6989,,,,,,,,,,,
,6989,1.0296380519866943,58,,,,,,,,,
0.001,6999,,,,,,,,,,,
,6999,0.9771835803985596,58,,,,,,,,,
0.001,7009,,,,,,,,,,,
,7009,0.8905783295631409,58,,,,,,,,,
0.001,7019,,,,,,,,,,,
,7019,1.1373701095581055,58,,,,,,,,,
,7019,,58,0.9245989918708801,27.625165939331055,6.690296649932861,3.0571556091308594,17.877714157104492,,,,
0.001,7029,,,,,,,,,,,
,7029,1.1238586902618408,58,,,,,,,,,
0.001,7039,,,,,,,,,,,
,7039,1.2153021097183228,58,,,,,,,,,
0.001,7049,,,,,,,,,,,
,7049,1.018603801727295,58,,,,,,,,,
0.001,7059,,,,,,,,,,,
,7059,1.3634471893310547,58,,,,,,,,,
0.001,7069,,,,,,,,,,,
,7069,1.1900084018707275,58,,,,,,,,,
0.001,7079,,,,,,,,,,,
,7079,1.2933897972106934,58,,,,,,,,,
,7079,,58,1.0051230192184448,30.10633659362793,11.010190963745117,1.6836508512496948,17.412494659423828,,,,
,7079,,58,,,,,,33.60066223144531,10.225687980651855,3.5461385250091553,19.82883644104004
0.001,7089,,,,,,,,,,,
,7089,1.2308450937271118,59,,,,,,,,,
0.001,7099,,,,,,,,,,,
,7099,1.0873768329620361,59,,,,,,,,,
0.001,7109,,,,,,,,,,,
,7109,1.3641583919525146,59,,,,,,,,,
0.001,7119,,,,,,,,,,,
,7119,1.2014527320861816,59,,,,,,,,,
0.001,7129,,,,,,,,,,,
,7129,1.1391830444335938,59,,,,,,,,,
0.001,7139,,,,,,,,,,,
,7139,1.1413532495498657,59,,,,,,,,,
,7139,,59,0.8824958801269531,26.98272132873535,7.089056491851807,2.5476295948028564,17.34603500366211,,,,
0.001,7149,,,,,,,,,,,
,7149,1.1120264530181885,59,,,,,,,,,
0.001,7159,,,,,,,,,,,
,7159,1.0811833143234253,59,,,,,,,,,
0.001,7169,,,,,,,,,,,
,7169,0.9891104102134705,59,,,,,,,,,
0.001,7179,,,,,,,,,,,
,7179,1.1870851516723633,59,,,,,,,,,
0.001,7189,,,,,,,,,,,
,7189,1.0376032590866089,59,,,,,,,,,
0.001,7199,,,,,,,,,,,
,7199,1.0327470302581787,59,,,,,,,,,
,7199,,59,0.9084818363189697,27.82454490661621,7.155516147613525,2.702702760696411,17.966327667236328,,,,
,7199,,59,,,,,,34.02040481567383,10.335033416748047,3.7170825004577637,19.96828842163086
0.001,7209,,,,,,,,,,,
,7209,1.1176667213439941,60,,,,,,,,,
0.001,7219,,,,,,,,,,,
,7219,1.128223180770874,60,,,,,,,,,
0.001,7229,,,,,,,,,,,
,7229,1.0265980958938599,60,,,,,,,,,
0.001,7239,,,,,,,,,,,
,7239,1.0054664611816406,60,,,,,,,,,
0.001,7249,,,,,,,,,,,
,7249,1.0044567584991455,60,,,,,,,,,
0.001,7259,,,,,,,,,,,
,7259,1.051344394683838,60,,,,,,,,,
,7259,,60,0.8698994517326355,26.25166130065918,7.421355724334717,2.281790018081665,16.54851531982422,,,,
0.001,7269,,,,,,,,,,,
,7269,1.1724026203155518,60,,,,,,,,,
0.001,7279,,,,,,,,,,,
,7279,1.2334964275360107,60,,,,,,,,,
0.001,7289,,,,,,,,,,,
,7289,1.2175512313842773,60,,,,,,,,,
0.001,7299,,,,,,,,,,,
,7299,1.0178234577178955,60,,,,,,,,,
0.001,7309,,,,,,,,,,,
,7309,1.0375863313674927,60,,,,,,,,,
0.001,7319,,,,,,,,,,,
,7319,1.1397194862365723,60,,,,,,,,,
,7319,,60,0.8596112728118896,26.8719539642334,8.21887493133545,1.9051839113235474,16.747896194458008,,,,
,7319,,60,,,,,,32.823631286621094,9.822700500488281,3.524060010910034,19.476871490478516
0.0001,7329,,,,,,,,,,,
,7329,0.9368605613708496,61,,,,,,,,,
0.0001,7339,,,,,,,,,,,
,7339,0.8879238963127136,61,,,,,,,,,
0.0001,7349,,,,,,,,,,,
,7349,0.7705931663513184,61,,,,,,,,,
0.0001,7359,,,,,,,,,,,
,7359,0.9866962432861328,61,,,,,,,,,
0.0001,7369,,,,,,,,,,,
,7369,0.9197884798049927,61,,,,,,,,,
0.0001,7379,,,,,,,,,,,
,7379,0.795164942741394,61,,,,,,,,,
,7379,,61,0.7528758645057678,23.19450569152832,6.2250776290893555,2.237483501434326,14.731945037841797,,,,
0.0001,7389,,,,,,,,,,,
,7389,0.8926843404769897,61,,,,,,,,,
0.0001,7399,,,,,,,,,,,
,7399,0.8934743404388428,61,,,,,,,,,
0.0001,7409,,,,,,,,,,,
,7409,0.9053783416748047,61,,,,,,,,,
0.0001,7419,,,,,,,,,,,
,7419,0.7982589602470398,61,,,,,,,,,
0.0001,7429,,,,,,,,,,,
,7429,0.8145874738693237,61,,,,,,,,,
0.0001,7439,,,,,,,,,,,
,7439,0.9244921803474426,61,,,,,,,,,
,7439,,61,0.7377340793609619,22.995126724243164,6.025697708129883,2.237483501434326,14.731945037841797,,,,
,7439,,61,,,,,,28.595436096191406,8.42711353302002,3.21767520904541,16.950647354125977
0.0001,7449,,,,,,,,,,,
,7449,0.8969427943229675,62,,,,,,,,,
0.0001,7459,,,,,,,,,,,
,7459,0.8023182153701782,62,,,,,,,,,
0.0001,7469,,,,,,,,,,,
,7469,0.7489968538284302,62,,,,,,,,,
0.0001,7479,,,,,,,,,,,
,7479,0.7397706508636475,62,,,,,,,,,
0.0001,7489,,,,,,,,,,,
,7489,0.854173481464386,62,,,,,,,,,
0.0001,7499,,,,,,,,,,,
,7499,0.9086576700210571,62,,,,,,,,,
,7499,,62,0.7239896059036255,23.172351837158203,6.335844039916992,2.237483501434326,14.59902572631836,,,,
0.0001,7509,,,,,,,,,,,
,7509,0.7352344989776611,62,,,,,,,,,
0.0001,7519,,,,,,,,,,,
,7519,0.7933590412139893,62,,,,,,,,,
0.0001,7529,,,,,,,,,,,
,7529,0.8553054332733154,62,,,,,,,,,
0.0001,7539,,,,,,,,,,,
,7539,0.8510782718658447,62,,,,,,,,,
0.0001,7549,,,,,,,,,,,
,7549,0.9113104939460754,62,,,,,,,,,
0.0001,7559,,,,,,,,,,,
,7559,0.8868868947029114,62,,,,,,,,,
,7559,,62,0.7209953665733337,22.662826538085938,6.2472310066223145,2.1267168521881104,14.28887939453125,,,,
,7559,,62,,,,,,26.483070373535156,7.487123012542725,3.0423734188079834,15.953574180603027
0.0001,7569,,,,,,,,,,,
,7569,0.8980291485786438,63,,,,,,,,,
0.0001,7579,,,,,,,,,,,
,7579,0.8350384831428528,63,,,,,,,,,
0.0001,7589,,,,,,,,,,,
,7589,0.7763038277626038,63,,,,,,,,,
0.0001,7599,,,,,,,,,,,
,7599,0.8284236788749695,63,,,,,,,,,
0.0001,7609,,,,,,,,,,,
,7609,0.8176050782203674,63,,,,,,,,,
0.0001,7619,,,,,,,,,,,
,7619,0.8465477228164673,63,,,,,,,,,
,7619,,63,0.7054263949394226,21.821001052856445,5.516171932220459,2.171023368835449,14.133806228637695,,,,
0.0001,7629,,,,,,,,,,,
,7629,0.7893073558807373,63,,,,,,,,,
0.0001,7639,,,,,,,,,,,
,7639,0.701038122177124,63,,,,,,,,,
0.0001,7649,,,,,,,,,,,
,7649,0.738471508026123,63,,,,,,,,,
0.0001,7659,,,,,,,,,,,
,7659,0.7078330516815186,63,,,,,,,,,
0.0001,7669,,,,,,,,,,,
,7669,0.8224701285362244,63,,,,,,,,,
0.0001,7679,,,,,,,,,,,
,7679,0.6719372868537903,63,,,,,,,,,
,7679,,63,0.7001657485961914,21.73238754272461,6.025697708129883,1.860877275466919,13.845812797546387,,,,
,7679,,63,,,,,,25.42963409423828,7.138529300689697,2.9578628540039062,15.33324146270752
0.0001,7689,,,,,,,,,,,
,7689,0.670329749584198,64,,,,,,,,,
0.0001,7699,,,,,,,,,,,
,7699,0.7612961530685425,64,,,,,,,,,
0.0001,7709,,,,,,,,,,,
,7709,0.7522173523902893,64,,,,,,,,,
0.0001,7719,,,,,,,,,,,
,7719,0.7772215008735657,64,,,,,,,,,
0.0001,7729,,,,,,,,,,,
,7729,0.7502291202545166,64,,,,,,,,,
0.0001,7739,,,,,,,,,,,
,7739,0.8588859438896179,64,,,,,,,,,
,7739,,64,0.6936382055282593,21.599468231201172,5.516171932220459,2.171023368835449,13.912272453308105,,,,
0.0001,7749,,,,,,,,,,,
,7749,0.7826246023178101,64,,,,,,,,,
0.0001,7759,,,,,,,,,,,
,7759,0.7432781457901001,64,,,,,,,,,
0.0001,7769,,,,,,,,,,,
,7769,0.7150358557701111,64,,,,,,,,,
0.0001,7779,,,,,,,,,,,
,7779,0.7650575041770935,64,,,,,,,,,
0.0001,7789,,,,,,,,,,,
,7789,0.8665245771408081,64,,,,,,,,,
0.0001,7799,,,,,,,,,,,
,7799,0.7228289246559143,64,,,,,,,,,
,7799,,64,0.6902653574943542,21.31147575378418,5.604784965515137,1.860877275466919,13.845812797546387,,,,
,7799,,64,,,,,,25.04507064819336,7.140989303588867,2.931259870529175,14.972820281982422
0.0001,7809,,,,,,,,,,,
,7809,0.767409086227417,65,,,,,,,,,
0.0001,7819,,,,,,,,,,,
,7819,0.8230752944946289,65,,,,,,,,,
0.0001,7829,,,,,,,,,,,
,7829,0.7638270258903503,65,,,,,,,,,
0.0001,7839,,,,,,,,,,,
,7839,0.7580900192260742,65,,,,,,,,,
0.0001,7849,,,,,,,,,,,
,7849,0.7068764567375183,65,,,,,,,,,
0.0001,7859,,,,,,,,,,,
,7859,0.7380290031433105,65,,,,,,,,,
,7859,,65,0.6843335628509521,21.55516242980957,6.025697708129883,2.0381035804748535,13.491360664367676,,,,
0.0001,7869,,,,,,,,,,,
,7869,0.6804471611976624,65,,,,,,,,,
0.0001,7879,,,,,,,,,,,
,7879,0.835822343826294,65,,,,,,,,,
0.0001,7889,,,,,,,,,,,
,7889,0.8134040236473083,65,,,,,,,,,
0.0001,7899,,,,,,,,,,,
,7899,0.7980867624282837,65,,,,,,,,,
0.0001,7909,,,,,,,,,,,
,7909,0.8179389834403992,65,,,,,,,,,
0.0001,7919,,,,,,,,,,,
,7919,0.7907066345214844,65,,,,,,,,,
,7919,,65,0.6740307807922363,21.35578155517578,5.649091720581055,2.1045634746551514,13.602127075195312,,,,
,7919,,65,,,,,,24.475996017456055,6.805850028991699,2.8699700832366943,14.800176620483398
0.0001,7929,,,,,,,,,,,
,7929,0.7950916290283203,66,,,,,,,,,
0.0001,7939,,,,,,,,,,,
,7939,0.7165774703025818,66,,,,,,,,,
0.0001,7949,,,,,,,,,,,
,7949,0.8102356791496277,66,,,,,,,,,
0.0001,7959,,,,,,,,,,,
,7959,0.8356927037239075,66,,,,,,,,,
0.0001,7969,,,,,,,,,,,
,7969,0.8407714366912842,66,,,,,,,,,
0.0001,7979,,,,,,,,,,,
,7979,0.7588071823120117,66,,,,,,,,,
,7979,,66,0.6791989803314209,21.24501609802246,5.626938343048096,1.9716438055038452,13.646432876586914,,,,
0.0001,7989,,,,,,,,,,,
,7989,0.7314085960388184,66,,,,,,,,,
0.0001,7999,,,,,,,,,,,
,7999,0.7770441174507141,66,,,,,,,,,
0.0001,8009,,,,,,,,,,,
,8009,0.6739153861999512,66,,,,,,,,,
0.0001,8019,,,,,,,,,,,
,8019,0.6558289527893066,66,,,,,,,,,
0.0001,8029,,,,,,,,,,,
,8029,0.7196013927459717,66,,,,,,,,,
0.0001,8039,,,,,,,,,,,
,8039,0.6652064919471741,66,,,,,,,,,
,8039,,66,0.6783384084701538,22.131147384643555,5.737704753875732,2.1045634746551514,14.28887939453125,,,,
,8039,,66,,,,,,24.121524810791016,6.838868141174316,2.889176845550537,14.393479347229004
0.0001,8049,,,,,,,,,,,
,8049,0.7390506267547607,67,,,,,,,,,
0.0001,8059,,,,,,,,,,,
,8059,0.779996395111084,67,,,,,,,,,
0.0001,8069,,,,,,,,,,,
,8069,0.7032052278518677,67,,,,,,,,,
0.0001,8079,,,,,,,,,,,
,8079,0.8385602235794067,67,,,,,,,,,
0.0001,8089,,,,,,,,,,,
,8089,0.7653690576553345,67,,,,,,,,,
0.0001,8099,,,,,,,,,,,
,8099,0.7273725867271423,67,,,,,,,,,
,8099,,67,0.6750242114067078,21.200708389282227,5.427558898925781,1.9937970638275146,13.779353141784668,,,,
0.0001,8109,,,,,,,,,,,
,8109,0.7277035117149353,67,,,,,,,,,
0.0001,8119,,,,,,,,,,,
,8119,0.7548195719718933,67,,,,,,,,,
0.0001,8129,,,,,,,,,,,
,8129,0.5702980756759644,67,,,,,,,,,
0.0001,8139,,,,,,,,,,,
,8139,0.7250090837478638,67,,,,,,,,,
0.0001,8149,,,,,,,,,,,
,8149,0.7147522568702698,67,,,,,,,,,
0.0001,8159,,,,,,,,,,,
,8159,0.7062896490097046,67,,,,,,,,,
,8159,,67,0.6739438772201538,21.4222412109375,5.671245098114014,1.8165706396102905,13.934426307678223,,,,
,8159,,67,,,,,,23.686960220336914,6.495077610015869,2.9285595417022705,14.263322830200195
0.0001,8169,,,,,,,,,,,
,8169,0.781976580619812,68,,,,,,,,,
0.0001,8179,,,,,,,,,,,
,8179,0.8021771907806396,68,,,,,,,,,
0.0001,8189,,,,,,,,,,,
,8189,0.749835729598999,68,,,,,,,,,
0.0001,8199,,,,,,,,,,,
,8199,0.7417237758636475,68,,,,,,,,,
0.0001,8209,,,,,,,,,,,
,8209,0.6224106550216675,68,,,,,,,,,
0.0001,8219,,,,,,,,,,,
,8219,0.6966471076011658,68,,,,,,,,,
,8219,,68,0.669686496257782,21.11209487915039,5.250332355499268,2.215330123901367,13.646432876586914,,,,
0.0001,8229,,,,,,,,,,,
,8229,0.7372572422027588,68,,,,,,,,,
0.0001,8239,,,,,,,,,,,
,8239,0.6502872705459595,68,,,,,,,,,
0.0001,8249,,,,,,,,,,,
,8249,0.654507040977478,68,,,,,,,,,
0.0001,8259,,,,,,,,,,,
,8259,0.6951422691345215,68,,,,,,,,,
0.0001,8269,,,,,,,,,,,
,8269,0.689483642578125,68,,,,,,,,,
0.0001,8279,,,,,,,,,,,
,8279,0.6690284013748169,68,,,,,,,,,
,8279,,68,0.6590538024902344,20.292423248291016,4.962339401245117,1.7279574871063232,13.602127075195312,,,,
,8279,,68,,,,,,23.70764923095703,6.555706977844238,2.954335927963257,14.197607040405273
0.0001,8289,,,,,,,,,,,
,8289,0.7616409063339233,69,,,,,,,,,
0.0001,8299,,,,,,,,,,,
,8299,0.7705880999565125,69,,,,,,,,,
0.0001,8309,,,,,,,,,,,
,8309,0.7036582231521606,69,,,,,,,,,
0.0001,8319,,,,,,,,,,,
,8319,0.7137408256530762,69,,,,,,,,,
0.0001,8329,,,,,,,,,,,
,8329,0.73939049243927,69,,,,,,,,,
0.0001,8339,,,,,,,,,,,
,8339,0.6759557723999023,69,,,,,,,,,
,8339,,69,0.6527919173240662,20.469650268554688,5.228178977966309,1.9937970638275146,13.247673988342285,,,,
0.0001,8349,,,,,,,,,,,
,8349,0.785582959651947,69,,,,,,,,,
0.0001,8359,,,,,,,,,,,
,8359,0.7039473056793213,69,,,,,,,,,
0.0001,8369,,,,,,,,,,,
,8369,0.711211085319519,69,,,,,,,,,
0.0001,8379,,,,,,,,,,,
,8379,0.6936088800430298,69,,,,,,,,,
0.0001,8389,,,,,,,,,,,
,8389,0.7679947018623352,69,,,,,,,,,
0.0001,8399,,,,,,,,,,,
,8399,0.7056704759597778,69,,,,,,,,,
,8399,,69,0.6631500124931335,21.045635223388672,5.560478687286377,2.171023368835449,13.314133644104004,,,,
,8399,,69,,,,,,23.355497360229492,6.431005001068115,2.8507447242736816,14.073748588562012
0.0001,8409,,,,,,,,,,,
,8409,0.7234593629837036,70,,,,,,,,,
0.0001,8419,,,,,,,,,,,
,8419,0.6793801784515381,70,,,,,,,,,
0.0001,8429,,,,,,,,,,,
,8429,0.7541335821151733,70,,,,,,,,,
0.0001,8439,,,,,,,,,,,
,8439,0.6546298861503601,70,,,,,,,,,
0.0001,8449,,,,,,,,,,,
,8449,0.7592769265174866,70,,,,,,,,,
0.0001,8459,,,,,,,,,,,
,8459,0.6688814163208008,70,,,,,,,,,
,8459,,70,0.6604059338569641,20.181657791137695,4.984492778778076,2.0381035804748535,13.15906047821045,,,,
0.0001,8469,,,,,,,,,,,
,8469,0.6092602014541626,70,,,,,,,,,
0.0001,8479,,,,,,,,,,,
,8479,0.766789436340332,70,,,,,,,,,
0.0001,8489,,,,,,,,,,,
,8489,0.6192629337310791,70,,,,,,,,,
0.0001,8499,,,,,,,,,,,
,8499,0.6854769587516785,70,,,,,,,,,
0.0001,8509,,,,,,,,,,,
,8509,0.8397496342658997,70,,,,,,,,,
0.0001,8519,,,,,,,,,,,
,8519,0.783611536026001,70,,,,,,,,,
,8519,,70,0.6612188816070557,20.314577102661133,5.2946391105651855,1.9937970638275146,13.026141166687012,,,,
,8519,,70,,,,,,22.948196411132812,6.313030242919922,2.7978203296661377,13.837346076965332
0.0001,8529,,,,,,,,,,,
,8529,0.7494956254959106,71,,,,,,,,,
0.0001,8539,,,,,,,,,,,
,8539,0.7548841238021851,71,,,,,,,,,
0.0001,8549,,,,,,,,,,,
,8549,0.7630912661552429,71,,,,,,,,,
0.0001,8559,,,,,,,,,,,
,8559,0.6812727451324463,71,,,,,,,,,
0.0001,8569,,,,,,,,,,,
,8569,0.7356628775596619,71,,,,,,,,,
0.0001,8579,,,,,,,,,,,
,8579,0.5780985355377197,71,,,,,,,,,
,8579,,71,0.6645175218582153,20.8241024017334,5.538325309753418,2.0159504413604736,13.269826889038086,,,,
0.0001,8589,,,,,,,,,,,
,8589,0.6482279300689697,71,,,,,,,,,
0.0001,8599,,,,,,,,,,,
,8599,0.6772074103355408,71,,,,,,,,,
0.0001,8609,,,,,,,,,,,
,8609,0.593205988407135,71,,,,,,,,,
0.0001,8619,,,,,,,,,,,
,8619,0.711788535118103,71,,,,,,,,,
0.0001,8629,,,,,,,,,,,
,8629,0.7496798038482666,71,,,,,,,,,
0.0001,8639,,,,,,,,,,,
,8639,0.6778022050857544,71,,,,,,,,,
,8639,,71,0.6628618240356445,20.979175567626953,5.759858131408691,2.1045634746551514,13.114753723144531,,,,
,8639,,71,,,,,,22.91377067565918,6.424884796142578,2.9261579513549805,13.562727928161621
0.0001,8649,,,,,,,,,,,
,8649,0.693603515625,72,,,,,,,,,
0.0001,8659,,,,,,,,,,,
,8659,0.6735070943832397,72,,,,,,,,,
0.0001,8669,,,,,,,,,,,
,8669,0.7247070670127869,72,,,,,,,,,
0.0001,8679,,,,,,,,,,,
,8679,0.5797883868217468,72,,,,,,,,,
0.0001,8689,,,,,,,,,,,
,8689,0.7005666494369507,72,,,,,,,,,
0.0001,8699,,,,,,,,,,,
,8699,0.6917511820793152,72,,,,,,,,,
,8699,,72,0.6645870804786682,20.735488891601562,5.626938343048096,1.8387240171432495,13.269826889038086,,,,
0.0001,8709,,,,,,,,,,,
,8709,0.7932071089744568,72,,,,,,,,,
0.0001,8719,,,,,,,,,,,
,8719,0.6215194463729858,72,,,,,,,,,
0.0001,8729,,,,,,,,,,,
,8729,0.6928342580795288,72,,,,,,,,,
0.0001,8739,,,,,,,,,,,
,8739,0.7468252182006836,72,,,,,,,,,
0.0001,8749,,,,,,,,,,,
,8749,0.7437504529953003,72,,,,,,,,,
0.0001,8759,,,,,,,,,,,
,8759,0.6692789196968079,72,,,,,,,,,
,8759,,72,0.6611934304237366,21.11209487915039,5.671245098114014,1.860877275466919,13.579973220825195,,,,
,8759,,72,,,,,,22.69206428527832,6.066141128540039,2.8689537048339844,13.756969451904297
0.0001,8769,,,,,,,,,,,
,8769,0.6784976124763489,73,,,,,,,,,
0.0001,8779,,,,,,,,,,,
,8779,0.6897082328796387,73,,,,,,,,,
0.0001,8789,,,,,,,,,,,
,8789,0.730532169342041,73,,,,,,,,,
0.0001,8799,,,,,,,,,,,
,8799,0.6337530612945557,73,,,,,,,,,
0.0001,8809,,,,,,,,,,,
,8809,0.6445431709289551,73,,,,,,,,,
0.0001,8819,,,,,,,,,,,
,8819,0.7064002752304077,73,,,,,,,,,
,8819,,73,0.6557654738426208,20.93486976623535,5.405405521392822,1.9716438055038452,13.557820320129395,,,,
0.0001,8829,,,,,,,,,,,
,8829,0.7277525663375854,73,,,,,,,,,
0.0001,8839,,,,,,,,,,,
,8839,0.7650784254074097,73,,,,,,,,,
0.0001,8849,,,,,,,,,,,
,8849,0.7020524740219116,73,,,,,,,,,
0.0001,8859,,,,,,,,,,,
,8859,0.6050769090652466,73,,,,,,,,,
0.0001,8869,,,,,,,,,,,
,8869,0.6968414187431335,73,,,,,,,,,
0.0001,8879,,,,,,,,,,,
,8879,0.6306942105293274,73,,,,,,,,,
,8879,,73,0.6618441939353943,21.045635223388672,5.848471641540527,1.7501107454299927,13.447053909301758,,,,
,8879,,73,,,,,,22.355838775634766,6.137948989868164,2.889417886734009,13.328472137451172
0.0001,8889,,,,,,,,,,,
,8889,0.6286574602127075,74,,,,,,,,,
0.0001,8899,,,,,,,,,,,
,8899,0.688117504119873,74,,,,,,,,,
0.0001,8909,,,,,,,,,,,
,8909,0.6438791751861572,74,,,,,,,,,
0.0001,8919,,,,,,,,,,,
,8919,0.6606981754302979,74,,,,,,,,,
0.0001,8929,,,,,,,,,,,
,8929,0.7765935659408569,74,,,,,,,,,
0.0001,8939,,,,,,,,,,,
,8939,0.5030477046966553,74,,,,,,,,,
,8939,,74,0.6633909940719604,20.469650268554688,4.8515729904174805,2.0602569580078125,13.557820320129395,,,,
0.0001,8949,,,,,,,,,,,
,8949,0.7105520963668823,74,,,,,,,,,
0.0001,8959,,,,,,,,,,,
,8959,0.7173296213150024,74,,,,,,,,,
0.0001,8969,,,,,,,,,,,
,8969,0.6686785221099854,74,,,,,,,,,
0.0001,8979,,,,,,,,,,,
,8979,0.7019631266593933,74,,,,,,,,,
0.0001,8989,,,,,,,,,,,
,8989,0.5863159894943237,74,,,,,,,,,
0.0001,8999,,,,,,,,,,,
,8999,0.6587303876876831,74,,,,,,,,,
,8999,,74,0.6492620706558228,20.02658462524414,5.050952434539795,1.794417381286621,13.181214332580566,,,,
,8999,,74,,,,,,22.042211532592773,6.035432815551758,2.8021161556243896,13.204662322998047
0.0001,9009,,,,,,,,,,,
,9009,0.7282829880714417,75,,,,,,,,,
0.0001,9019,,,,,,,,,,,
,9019,0.7372808456420898,75,,,,,,,,,
0.0001,9029,,,,,,,,,,,
,9029,0.6531884074211121,75,,,,,,,,,
0.0001,9039,,,,,,,,,,,
,9039,0.6553670167922974,75,,,,,,,,,
0.0001,9049,,,,,,,,,,,
,9049,0.6070114374160767,75,,,,,,,,,
0.0001,9059,,,,,,,,,,,
,9059,0.6354937553405762,75,,,,,,,,,
,9059,,75,0.6480182409286499,20.33673095703125,5.626938343048096,1.8830305337905884,12.826761245727539,,,,
0.0001,9069,,,,,,,,,,,
,9069,0.658532440662384,75,,,,,,,,,
0.0001,9079,,,,,,,,,,,
,9079,0.6173877716064453,75,,,,,,,,,
0.0001,9089,,,,,,,,,,,
,9089,0.6148534417152405,75,,,,,,,,,
0.0001,9099,,,,,,,,,,,
,9099,0.7136543989181519,75,,,,,,,,,
0.0001,9109,,,,,,,,,,,
,9109,0.5750305652618408,75,,,,,,,,,
0.0001,9119,,,,,,,,,,,
,9119,0.6818718314170837,75,,,,,,,,,
,9119,,75,0.6410499215126038,19.760744094848633,5.050952434539795,1.8165706396102905,12.893220901489258,,,,
,9119,,75,,,,,,21.69666862487793,5.9231672286987305,2.721566915512085,13.051934242248535
0.0001,9129,,,,,,,,,,,
,9129,0.6894237995147705,76,,,,,,,,,
0.0001,9139,,,,,,,,,,,
,9139,0.6928651332855225,76,,,,,,,,,
0.0001,9149,,,,,,,,,,,
,9149,0.6661553382873535,76,,,,,,,,,
0.0001,9159,,,,,,,,,,,
,9159,0.6172695755958557,76,,,,,,,,,
0.0001,9169,,,,,,,,,,,
,9169,0.5935671329498291,76,,,,,,,,,
0.0001,9179,,,,,,,,,,,
,9179,0.7678336501121521,76,,,,,,,,,
,9179,,76,0.6553707718849182,20.735488891601562,5.959238052368164,1.8387240171432495,12.937527656555176,,,,
0.0001,9189,,,,,,,,,,,
,9189,0.5498945713043213,76,,,,,,,,,
0.0001,9199,,,,,,,,,,,
,9199,0.6272096633911133,76,,,,,,,,,
0.0001,9209,,,,,,,,,,,
,9209,0.5709387063980103,76,,,,,,,,,
0.0001,9219,,,,,,,,,,,
,9219,0.6565667390823364,76,,,,,,,,,
0.0001,9229,,,,,,,,,,,
,9229,0.7178332805633545,76,,,,,,,,,
0.0001,9239,,,,,,,,,,,
,9239,0.7372599244117737,76,,,,,,,,,
,9239,,76,0.6564092040061951,20.248117446899414,5.2946391105651855,2.0602569580078125,12.893220901489258,,,,
,9239,,76,,,,,,21.668624877929688,5.857468605041504,2.8824219703674316,12.92873477935791
0.0001,9249,,,,,,,,,,,
,9249,0.6647996306419373,77,,,,,,,,,
0.0001,9259,,,,,,,,,,,
,9259,0.5452980995178223,77,,,,,,,,,
0.0001,9269,,,,,,,,,,,
,9269,0.6561893224716187,77,,,,,,,,,
0.0001,9279,,,,,,,,,,,
,9279,0.616420328617096,77,,,,,,,,,
0.0001,9289,,,,,,,,,,,
,9289,0.6670308113098145,77,,,,,,,,,
0.0001,9299,,,,,,,,,,,
,9299,0.7923409342765808,77,,,,,,,,,
,9299,,77,0.6548372507095337,20.358882904052734,6.003544330596924,1.9494904279708862,12.405848503112793,,,,
0.0001,9309,,,,,,,,,,,
,9309,0.5275887846946716,77,,,,,,,,,
0.0001,9319,,,,,,,,,,,
,9319,0.6566440463066101,77,,,,,,,,,
0.0001,9329,,,,,,,,,,,
,9329,0.6463704109191895,77,,,,,,,,,
0.0001,9339,,,,,,,,,,,
,9339,0.63132643699646,77,,,,,,,,,
0.0001,9349,,,,,,,,,,,
,9349,0.6887613534927368,77,,,,,,,,,
0.0001,9359,,,,,,,,,,,
,9359,0.5925382971763611,77,,,,,,,,,
,9359,,77,0.6442116498947144,20.69118309020996,5.870624542236328,1.9051839113235474,12.915374755859375,,,,
,9359,,77,,,,,,21.433595657348633,5.805535316467285,2.7827956676483154,12.845263481140137
0.0001,9369,,,,,,,,,,,
,9369,0.5847023129463196,78,,,,,,,,,
0.0001,9379,,,,,,,,,,,
,9379,0.6145559549331665,78,,,,,,,,,
0.0001,9389,,,,,,,,,,,
,9389,0.5897936820983887,78,,,,,,,,,
0.0001,9399,,,,,,,,,,,
,9399,0.6388061046600342,78,,,,,,,,,
0.0001,9409,,,,,,,,,,,
,9409,0.7564940452575684,78,,,,,,,,,
0.0001,9419,,,,,,,,,,,
,9419,0.7323254346847534,78,,,,,,,,,
,9419,,78,0.6600775122642517,21.134248733520508,5.78201150894165,2.1488702297210693,13.203367233276367,,,,
0.0001,9429,,,,,,,,,,,
,9429,0.687403678894043,78,,,,,,,,,
0.0001,9439,,,,,,,,,,,
,9439,0.5684964656829834,78,,,,,,,,,
0.0001,9449,,,,,,,,,,,
,9449,0.6711009740829468,78,,,,,,,,,
0.0001,9459,,,,,,,,,,,
,9459,0.6577153205871582,78,,,,,,,,,
0.0001,9469,,,,,,,,,,,
,9469,0.7086261510848999,78,,,,,,,,,
0.0001,9479,,,,,,,,,,,
,9479,0.5904956459999084,78,,,,,,,,,
,9479,,78,0.6480963230133057,20.602569580078125,5.427558898925781,2.0159504413604736,13.15906047821045,,,,
,9479,,78,,,,,,21.504398345947266,5.956462383270264,2.704228401184082,12.843708038330078
0.0001,9489,,,,,,,,,,,
,9489,0.6546938419342041,79,,,,,,,,,
0.0001,9499,,,,,,,,,,,
,9499,0.6883965730667114,79,,,,,,,,,
0.0001,9509,,,,,,,,,,,
,9509,0.6049018502235413,79,,,,,,,,,
0.0001,9519,,,,,,,,,,,
,9519,0.7502297163009644,79,,,,,,,,,
0.0001,9529,,,,,,,,,,,
,9529,0.6158475875854492,79,,,,,,,,,
0.0001,9539,,,,,,,,,,,
,9539,0.645583987236023,79,,,,,,,,,
,9539,,79,0.647578239440918,20.669029235839844,5.848471641540527,1.860877275466919,12.959680557250977,,,,
0.0001,9549,,,,,,,,,,,
,9549,0.6854641437530518,79,,,,,,,,,
0.0001,9559,,,,,,,,,,,
,9559,0.69493567943573,79,,,,,,,,,
0.0001,9569,,,,,,,,,,,
,9569,0.6956794261932373,79,,,,,,,,,
0.0001,9579,,,,,,,,,,,
,9579,0.6285587549209595,79,,,,,,,,,
0.0001,9589,,,,,,,,,,,
,9589,0.6747959852218628,79,,,,,,,,,
0.0001,9599,,,,,,,,,,,
,9599,0.6700970530509949,79,,,,,,,,,
,9599,,79,0.6424363255500793,20.20380973815918,5.560478687286377,1.9273371696472168,12.715994834899902,,,,
,9599,,79,,,,,,21.396814346313477,5.866402626037598,2.7804160118103027,12.749996185302734
0.0001,9609,,,,,,,,,,,
,9609,0.6452745795249939,80,,,,,,,,,
0.0001,9619,,,,,,,,,,,
,9619,0.5940426588058472,80,,,,,,,,,
0.0001,9629,,,,,,,,,,,
,9629,0.5676634907722473,80,,,,,,,,,
0.0001,9639,,,,,,,,,,,
,9639,0.5535449981689453,80,,,,,,,,,
0.0001,9649,,,,,,,,,,,
,9649,0.5827984809875488,80,,,,,,,,,
0.0001,9659,,,,,,,,,,,
,9659,0.6026355028152466,80,,,,,,,,,
,9659,,80,0.6534317135810852,19.982276916503906,5.693398475646973,1.6836508512496948,12.605228424072266,,,,
0.0001,9669,,,,,,,,,,,
,9669,0.560795783996582,80,,,,,,,,,
0.0001,9679,,,,,,,,,,,
,9679,0.6560488343238831,80,,,,,,,,,
0.0001,9689,,,,,,,,,,,
,9689,0.6574640274047852,80,,,,,,,,,
0.0001,9699,,,,,,,,,,,
,9699,0.5859518051147461,80,,,,,,,,,
0.0001,9709,,,,,,,,,,,
,9709,0.5809552669525146,80,,,,,,,,,
0.0001,9719,,,,,,,,,,,
,9719,0.698708713054657,80,,,,,,,,,
,9719,,80,0.6492708325386047,19.871511459350586,5.759858131408691,1.7501107454299927,12.361541748046875,,,,
,9719,,80,,,,,,20.791017532348633,5.649538993835449,2.756744146347046,12.384735107421875
0.0001,9729,,,,,,,,,,,
,9729,0.6010109186172485,81,,,,,,,,,
0.0001,9739,,,,,,,,,,,
,9739,0.6837165355682373,81,,,,,,,,,
0.0001,9749,,,,,,,,,,,
,9749,0.5619992017745972,81,,,,,,,,,
0.0001,9759,,,,,,,,,,,
,9759,0.6488321423530579,81,,,,,,,,,
0.0001,9769,,,,,,,,,,,
,9769,0.5046778917312622,81,,,,,,,,,
0.0001,9779,,,,,,,,,,,
,9779,0.49586793780326843,81,,,,,,,,,
,9779,,81,0.6467465162277222,20.2702693939209,5.715551853179932,1.7058041095733643,12.84891414642334,,,,
0.0001,9789,,,,,,,,,,,
,9789,0.6369631886482239,81,,,,,,,,,
0.0001,9799,,,,,,,,,,,
,9799,0.653389573097229,81,,,,,,,,,
0.0001,9809,,,,,,,,,,,
,9809,0.653566837310791,81,,,,,,,,,
0.0001,9819,,,,,,,,,,,
,9819,0.6960532069206238,81,,,,,,,,,
0.0001,9829,,,,,,,,,,,
,9829,0.6854605674743652,81,,,,,,,,,
0.0001,9839,,,,,,,,,,,
,9839,0.6627995371818542,81,,,,,,,,,
,9839,,81,0.654597818851471,20.115196228027344,4.918032646179199,1.9937970638275146,13.203367233276367,,,,
,9839,,81,,,,,,21.057125091552734,5.742726802825928,2.748137950897217,12.566259384155273
0.0001,9849,,,,,,,,,,,
,9849,0.6344735622406006,82,,,,,,,,,
0.0001,9859,,,,,,,,,,,
,9859,0.5678925514221191,82,,,,,,,,,
0.0001,9869,,,,,,,,,,,
,9869,0.5725629329681396,82,,,,,,,,,
0.0001,9879,,,,,,,,,,,
,9879,0.6363789439201355,82,,,,,,,,,
0.0001,9889,,,,,,,,,,,
,9889,0.615818977355957,82,,,,,,,,,
0.0001,9899,,,,,,,,,,,
,9899,0.6813951134681702,82,,,,,,,,,
,9899,,82,0.6411154866218567,19.627824783325195,5.405405521392822,1.860877275466919,12.361541748046875,,,,
0.0001,9909,,,,,,,,,,,
,9909,0.6257833242416382,82,,,,,,,,,
0.0001,9919,,,,,,,,,,,
,9919,0.5010458827018738,82,,,,,,,,,
0.0001,9929,,,,,,,,,,,
,9929,0.5902266502380371,82,,,,,,,,,
0.0001,9939,,,,,,,,,,,
,9939,0.5837732553482056,82,,,,,,,,,
0.0001,9949,,,,,,,,,,,
,9949,0.6094850301742554,82,,,,,,,,,
0.0001,9959,,,,,,,,,,,
,9959,0.5141029357910156,82,,,,,,,,,
,9959,,82,0.6421864628791809,20.33673095703125,5.250332355499268,2.0602569580078125,13.026141166687012,,,,
,9959,,82,,,,,,20.614805221557617,5.508265018463135,2.6388049125671387,12.467735290527344
0.0001,9969,,,,,,,,,,,
,9969,0.546928882598877,83,,,,,,,,,
0.0001,9979,,,,,,,,,,,
,9979,0.564486563205719,83,,,,,,,,,
0.0001,9989,,,,,,,,,,,
,9989,0.6330187916755676,83,,,,,,,,,
0.0001,9999,,,,,,,,,,,
,9999,0.5814687013626099,83,,,,,,,,,
0.0001,10009,,,,,,,,,,,
,10009,0.6786419153213501,83,,,,,,,,,
0.0001,10019,,,,,,,,,,,
,10019,0.6281701326370239,83,,,,,,,,,
,10019,,83,0.6463570594787598,20.491804122924805,5.693398475646973,2.0824103355407715,12.715994834899902,,,,
0.0001,10029,,,,,,,,,,,
,10029,0.6113616228103638,83,,,,,,,,,
0.0001,10039,,,,,,,,,,,
,10039,0.5689157247543335,83,,,,,,,,,
0.0001,10049,,,,,,,,,,,
,10049,0.5615392923355103,83,,,,,,,,,
0.0001,10059,,,,,,,,,,,
,10059,0.6040364503860474,83,,,,,,,,,
0.0001,10069,,,,,,,,,,,
,10069,0.6582112312316895,83,,,,,,,,,
0.0001,10079,,,,,,,,,,,
,10079,0.5945971012115479,83,,,,,,,,,
,10079,,83,0.6549232602119446,20.51395606994629,5.471865177154541,1.9494904279708862,13.09260082244873,,,,
,10079,,83,,,,,,20.465469360351562,5.506906032562256,2.7859115600585938,12.172652244567871
0.0001,10089,,,,,,,,,,,
,10089,0.6000415086746216,84,,,,,,,,,
0.0001,10099,,,,,,,,,,,
,10099,0.654436469078064,84,,,,,,,,,
0.0001,10109,,,,,,,,,,,
,10109,0.6386750936508179,84,,,,,,,,,
0.0001,10119,,,,,,,,,,,
,10119,0.5608681440353394,84,,,,,,,,,
0.0001,10129,,,,,,,,,,,
,10129,0.6075756549835205,84,,,,,,,,,
0.0001,10139,,,,,,,,,,,
,10139,0.5768482685089111,84,,,,,,,,,
,10139,,84,0.6346840858459473,19.11829948425293,4.607886791229248,2.215330123901367,12.295082092285156,,,,
0.0001,10149,,,,,,,,,,,
,10149,0.631534218788147,84,,,,,,,,,
0.0001,10159,,,,,,,,,,,
,10159,0.680839478969574,84,,,,,,,,,
0.0001,10169,,,,,,,,,,,
,10169,0.5520365238189697,84,,,,,,,,,
0.0001,10179,,,,,,,,,,,
,10179,0.6157344579696655,84,,,,,,,,,
0.0001,10189,,,,,,,,,,,
,10189,0.5779978632926941,84,,,,,,,,,
0.0001,10199,,,,,,,,,,,
,10199,0.6097683906555176,84,,,,,,,,,
,10199,,84,0.6448934078216553,19.561365127563477,5.028799057006836,1.8165706396102905,12.715994834899902,,,,
,10199,,84,,,,,,20.31151008605957,5.588454246520996,2.6661524772644043,12.056903839111328
0.0001,10209,,,,,,,,,,,
,10209,0.570091724395752,85,,,,,,,,,
0.0001,10219,,,,,,,,,,,
,10219,0.6671504974365234,85,,,,,,,,,
0.0001,10229,,,,,,,,,,,
,10229,0.5947893857955933,85,,,,,,,,,
0.0001,10239,,,,,,,,,,,
,10239,0.6238386034965515,85,,,,,,,,,
0.0001,10249,,,,,,,,,,,
,10249,0.5602113008499146,85,,,,,,,,,
0.0001,10259,,,,,,,,,,,
,10259,0.5935499668121338,85,,,,,,,,,
,10259,,85,0.6472399830818176,20.13735008239746,5.4940185546875,2.0381035804748535,12.605228424072266,,,,
0.0001,10269,,,,,,,,,,,
,10269,0.47772932052612305,85,,,,,,,,,
0.0001,10279,,,,,,,,,,,
,10279,0.6206516623497009,85,,,,,,,,,
0.0001,10289,,,,,,,,,,,
,10289,0.6535627841949463,85,,,,,,,,,
0.0001,10299,,,,,,,,,,,
,10299,0.5780301094055176,85,,,,,,,,,
0.0001,10309,,,,,,,,,,,
,10309,0.6556475758552551,85,,,,,,,,,
0.0001,10319,,,,,,,,,,,
,10319,0.5269714593887329,85,,,,,,,,,
,10319,,85,0.6346182227134705,20.159503936767578,4.630039691925049,2.5254762172698975,13.003987312316895,,,,
,10319,,85,,,,,,19.996417999267578,5.466597080230713,2.729853391647339,11.799966812133789
0.0001,10329,,,,,,,,,,,
,10329,0.6350582838058472,86,,,,,,,,,
0.0001,10339,,,,,,,,,,,
,10339,0.597935676574707,86,,,,,,,,,
0.0001,10349,,,,,,,,,,,
,10349,0.6259565949440002,86,,,,,,,,,
0.0001,10359,,,,,,,,,,,
,10359,0.5420613288879395,86,,,,,,,,,
0.0001,10369,,,,,,,,,,,
,10369,0.5632469654083252,86,,,,,,,,,
0.0001,10379,,,,,,,,,,,
,10379,0.587312638759613,86,,,,,,,,,
,10379,,86,0.6309822201728821,19.339832305908203,4.8294196128845215,2.237483501434326,12.272928237915039,,,,
0.0001,10389,,,,,,,,,,,
,10389,0.5295640230178833,86,,,,,,,,,
0.0001,10399,,,,,,,,,,,
,10399,0.6631672978401184,86,,,,,,,,,
0.0001,10409,,,,,,,,,,,
,10409,0.6219562888145447,86,,,,,,,,,
0.0001,10419,,,,,,,,,,,
,10419,0.5135052800178528,86,,,,,,,,,
0.0001,10429,,,,,,,,,,,
,10429,0.4663681387901306,86,,,,,,,,,
0.0001,10439,,,,,,,,,,,
,10439,0.5271793007850647,86,,,,,,,,,
,10439,,86,0.6327220797538757,19.871511459350586,5.095259189605713,2.259636640548706,12.51661491394043,,,,
,10439,,86,,,,,,19.82218360900879,5.291870594024658,2.654867172241211,11.875446319580078
0.0001,10449,,,,,,,,,,,
,10449,0.5592561960220337,87,,,,,,,,,
0.0001,10459,,,,,,,,,,,
,10459,0.5025143623352051,87,,,,,,,,,
0.0001,10469,,,,,,,,,,,
,10469,0.561874508857727,87,,,,,,,,,
0.0001,10479,,,,,,,,,,,
,10479,0.6014593839645386,87,,,,,,,,,
0.0001,10489,,,,,,,,,,,
,10489,0.5783417224884033,87,,,,,,,,,
0.0001,10499,,,,,,,,,,,
,10499,0.5335750579833984,87,,,,,,,,,
,10499,,87,0.6411433815956116,20.20380973815918,5.693398475646973,2.0159504413604736,12.494462013244629,,,,
0.0001,10509,,,,,,,,,,,
,10509,0.690680742263794,87,,,,,,,,,
0.0001,10519,,,,,,,,,,,
,10519,0.5571175217628479,87,,,,,,,,,
0.0001,10529,,,,,,,,,,,
,10529,0.6224761009216309,87,,,,,,,,,
0.0001,10539,,,,,,,,,,,
,10539,0.5411040782928467,87,,,,,,,,,
0.0001,10549,,,,,,,,,,,
,10549,0.605650782585144,87,,,,,,,,,
0.0001,10559,,,,,,,,,,,
,10559,0.606168270111084,87,,,,,,,,,
,10559,,87,0.6260470151901245,19.22906494140625,4.8294196128845215,1.9494904279708862,12.450155258178711,,,,
,10559,,87,,,,,,19.79125213623047,5.310719013214111,2.697246551513672,11.783286094665527
0.0001,10569,,,,,,,,,,,
,10569,0.6006203889846802,88,,,,,,,,,
0.0001,10579,,,,,,,,,,,
,10579,0.5310031771659851,88,,,,,,,,,
0.0001,10589,,,,,,,,,,,
,10589,0.6549665927886963,88,,,,,,,,,
0.0001,10599,,,,,,,,,,,
,10599,0.6424175500869751,88,,,,,,,,,
0.0001,10609,,,,,,,,,,,
,10609,0.6080292463302612,88,,,,,,,,,
0.0001,10619,,,,,,,,,,,
,10619,0.693235456943512,88,,,,,,,,,
,10619,,88,0.6413905024528503,20.13735008239746,4.8294196128845215,2.1488702297210693,13.15906047821045,,,,
0.0001,10629,,,,,,,,,,,
,10629,0.5753085613250732,88,,,,,,,,,
0.0001,10639,,,,,,,,,,,
,10639,0.6088833808898926,88,,,,,,,,,
0.0001,10649,,,,,,,,,,,
,10649,0.5717658996582031,88,,,,,,,,,
0.0001,10659,,,,,,,,,,,
,10659,0.6081587076187134,88,,,,,,,,,
0.0001,10669,,,,,,,,,,,
,10669,0.5791597366333008,88,,,,,,,,,
0.0001,10679,,,,,,,,,,,
,10679,0.5004445314407349,88,,,,,,,,,
,10679,,88,0.6411315202713013,20.33673095703125,5.405405521392822,2.1267168521881104,12.804608345031738,,,,
,10679,,88,,,,,,19.578176498413086,5.44763708114624,2.771314859390259,11.359224319458008
0.0001,10689,,,,,,,,,,,
,10689,0.47097599506378174,89,,,,,,,,,
0.0001,10699,,,,,,,,,,,
,10699,0.5305836200714111,89,,,,,,,,,
0.0001,10709,,,,,,,,,,,
,10709,0.6257511377334595,89,,,,,,,,,
0.0001,10719,,,,,,,,,,,
,10719,0.6413862705230713,89,,,,,,,,,
0.0001,10729,,,,,,,,,,,
,10729,0.590178370475769,89,,,,,,,,,
0.0001,10739,,,,,,,,,,,
,10739,0.6081192493438721,89,,,,,,,,,
,10739,,89,0.6387825608253479,19.805051803588867,5.383252143859863,2.0824103355407715,12.339388847351074,,,,
0.0001,10749,,,,,,,,,,,
,10749,0.5618767738342285,89,,,,,,,,,
0.0001,10759,,,,,,,,,,,
,10759,0.6653004884719849,89,,,,,,,,,
0.0001,10769,,,,,,,,,,,
,10769,0.47755151987075806,89,,,,,,,,,
0.0001,10779,,,,,,,,,,,
,10779,0.5684173107147217,89,,,,,,,,,
0.0001,10789,,,,,,,,,,,
,10789,0.5588011741638184,89,,,,,,,,,
0.0001,10799,,,,,,,,,,,
,10799,0.6334667801856995,89,,,,,,,,,
,10799,,89,0.6283488869667053,19.937971115112305,5.737704753875732,1.860877275466919,12.339388847351074,,,,
,10799,,89,,,,,,19.349288940429688,5.079893589019775,2.7759809494018555,11.493414878845215
0.0001,10809,,,,,,,,,,,
,10809,0.6323383450508118,90,,,,,,,,,
0.0001,10819,,,,,,,,,,,
,10819,0.526491641998291,90,,,,,,,,,
0.0001,10829,,,,,,,,,,,
,10829,0.48954859375953674,90,,,,,,,,,
0.0001,10839,,,,,,,,,,,
,10839,0.6061720848083496,90,,,,,,,,,
0.0001,10849,,,,,,,,,,,
,10849,0.5425732135772705,90,,,,,,,,,
0.0001,10859,,,,,,,,,,,
,10859,0.5956684350967407,90,,,,,,,,,
,10859,,90,0.6379428505897522,19.805051803588867,5.139565944671631,2.1267168521881104,12.53876781463623,,,,
0.0001,10869,,,,,,,,,,,
,10869,0.6556203365325928,90,,,,,,,,,
0.0001,10879,,,,,,,,,,,
,10879,0.6206331253051758,90,,,,,,,,,
0.0001,10889,,,,,,,,,,,
,10889,0.5550751686096191,90,,,,,,,,,
0.0001,10899,,,,,,,,,,,
,10899,0.6362181901931763,90,,,,,,,,,
0.0001,10909,,,,,,,,,,,
,10909,0.6268524527549744,90,,,,,,,,,
0.0001,10919,,,,,,,,,,,
,10919,0.5218778848648071,90,,,,,,,,,
,10919,,90,0.6237136125564575,19.89366340637207,5.383252143859863,1.8830305337905884,12.627381324768066,,,,
,10919,,90,,,,,,19.064985275268555,5.265972137451172,2.567863941192627,11.231148719787598
0.0001,10929,,,,,,,,,,,
,10929,0.569503903388977,91,,,,,,,,,
0.0001,10939,,,,,,,,,,,
,10939,0.5388137102127075,91,,,,,,,,,
0.0001,10949,,,,,,,,,,,
,10949,0.5993927717208862,91,,,,,,,,,
0.0001,10959,,,,,,,,,,,
,10959,0.6250102519989014,91,,,,,,,,,
0.0001,10969,,,,,,,,,,,
,10969,0.5538137555122375,91,,,,,,,,,
0.0001,10979,,,,,,,,,,,
,10979,0.5897748470306396,91,,,,,,,,,
,10979,,91,0.6308926939964294,20.13735008239746,5.272485733032227,1.860877275466919,13.003987312316895,,,,
0.0001,10989,,,,,,,,,,,
,10989,0.6044014692306519,91,,,,,,,,,
0.0001,10999,,,,,,,,,,,
,10999,0.5368263125419617,91,,,,,,,,,
0.0001,11009,,,,,,,,,,,
,11009,0.5372833013534546,91,,,,,,,,,
0.0001,11019,,,,,,,,,,,
,11019,0.6215516328811646,91,,,,,,,,,
0.0001,11029,,,,,,,,,,,
,11029,0.5585207939147949,91,,,,,,,,,
0.0001,11039,,,,,,,,,,,
,11039,0.5716192722320557,91,,,,,,,,,
,11039,,91,0.6376059055328369,20.004430770874023,4.940186023712158,2.237483501434326,12.826761245727539,,,,
,11039,,91,,,,,,19.065643310546875,5.105536460876465,2.7157697677612305,11.244336128234863
0.0001,11049,,,,,,,,,,,
,11049,0.6109355688095093,92,,,,,,,,,
0.0001,11059,,,,,,,,,,,
,11059,0.6952658891677856,92,,,,,,,,,
0.0001,11069,,,,,,,,,,,
,11069,0.5740623474121094,92,,,,,,,,,
0.0001,11079,,,,,,,,,,,
,11079,0.521652102470398,92,,,,,,,,,
0.0001,11089,,,,,,,,,,,
,11089,0.5951311588287354,92,,,,,,,,,
0.0001,11099,,,,,,,,,,,
,11099,0.4805617332458496,92,,,,,,,,,
,11099,,92,0.6385532021522522,20.225963592529297,6.003544330596924,1.8165706396102905,12.405848503112793,,,,
0.0001,11109,,,,,,,,,,,
,11109,0.4921463131904602,92,,,,,,,,,
0.0001,11119,,,,,,,,,,,
,11119,0.5812965631484985,92,,,,,,,,,
0.0001,11129,,,,,,,,,,,
,11129,0.6077133417129517,92,,,,,,,,,
0.0001,11139,,,,,,,,,,,
,11139,0.5669070482254028,92,,,,,,,,,
0.0001,11149,,,,,,,,,,,
,11149,0.6310430765151978,92,,,,,,,,,
0.0001,11159,,,,,,,,,,,
,11159,0.5737913846969604,92,,,,,,,,,
,11159,,92,0.643136739730835,19.960124969482422,5.2946391105651855,1.8387240171432495,12.826761245727539,,,,
,11159,,92,,,,,,18.91929054260254,4.965866565704346,2.6494715213775635,11.303953170776367
0.0001,11169,,,,,,,,,,,
,11169,0.5780447721481323,93,,,,,,,,,
0.0001,11179,,,,,,,,,,,
,11179,0.5942246317863464,93,,,,,,,,,
0.0001,11189,,,,,,,,,,,
,11189,0.6187933087348938,93,,,,,,,,,
0.0001,11199,,,,,,,,,,,
,11199,0.5761333703994751,93,,,,,,,,,
0.0001,11209,,,,,,,,,,,
,11209,0.5429105758666992,93,,,,,,,,,
0.0001,11219,,,,,,,,,,,
,11219,0.5971585512161255,93,,,,,,,,,
,11219,,93,0.6293147206306458,19.428443908691406,5.20602560043335,1.860877275466919,12.361541748046875,,,,
0.0001,11229,,,,,,,,,,,
,11229,0.46132615208625793,93,,,,,,,,,
0.0001,11239,,,,,,,,,,,
,11239,0.6740798950195312,93,,,,,,,,,
0.0001,11249,,,,,,,,,,,
,11249,0.5902926325798035,93,,,,,,,,,
0.0001,11259,,,,,,,,,,,
,11259,0.5461469888687134,93,,,,,,,,,
0.0001,11269,,,,,,,,,,,
,11269,0.5972884893417358,93,,,,,,,,,
0.0001,11279,,,,,,,,,,,
,11279,0.5310318470001221,93,,,,,,,,,
,11279,,93,0.6291946768760681,19.11829948425293,4.718653202056885,1.8387240171432495,12.560921669006348,,,,
,11279,,93,,,,,,18.937644958496094,5.174309730529785,2.673759937286377,11.089574813842773
0.0001,11289,,,,,,,,,,,
,11289,0.5611047744750977,94,,,,,,,,,
0.0001,11299,,,,,,,,,,,
,11299,0.5232861042022705,94,,,,,,,,,
0.0001,11309,,,,,,,,,,,
,11309,0.5415403842926025,94,,,,,,,,,
0.0001,11319,,,,,,,,,,,
,11319,0.5303677320480347,94,,,,,,,,,
0.0001,11329,,,,,,,,,,,
,11329,0.49353349208831787,94,,,,,,,,,
0.0001,11339,,,,,,,,,,,
,11339,0.6193574666976929,94,,,,,,,,,
,11339,,94,0.6362994313240051,19.694284439086914,4.918032646179199,2.0159504413604736,12.76030158996582,,,,
0.0001,11349,,,,,,,,,,,
,11349,0.5629888772964478,94,,,,,,,,,
0.0001,11359,,,,,,,,,,,
,11359,0.5243121385574341,94,,,,,,,,,
0.0001,11369,,,,,,,,,,,
,11369,0.5606276392936707,94,,,,,,,,,
0.0001,11379,,,,,,,,,,,
,11379,0.5512075424194336,94,,,,,,,,,
0.0001,11389,,,,,,,,,,,
,11389,0.6053552627563477,94,,,,,,,,,
0.0001,11399,,,,,,,,,,,
,11399,0.5185389518737793,94,,,,,,,,,
,11399,,94,0.6530771851539612,20.13735008239746,5.006646156311035,2.0602569580078125,13.07044792175293,,,,
,11399,,94,,,,,,18.532930374145508,4.996562480926514,2.6302764415740967,10.90609073638916
0.0001,11409,,,,,,,,,,,
,11409,0.5718470811843872,95,,,,,,,,,
0.0001,11419,,,,,,,,,,,
,11419,0.5125057101249695,95,,,,,,,,,
0.0001,11429,,,,,,,,,,,
,11429,0.6216041445732117,95,,,,,,,,,
0.0001,11439,,,,,,,,,,,
,11439,0.526464581489563,95,,,,,,,,,
0.0001,11449,,,,,,,,,,,
,11449,0.5490620136260986,95,,,,,,,,,
0.0001,11459,,,,,,,,,,,
,11459,0.541506826877594,95,,,,,,,,,
,11459,,95,0.6432293057441711,20.02658462524414,5.028799057006836,1.9937970638275146,13.003987312316895,,,,
0.0001,11469,,,,,,,,,,,
,11469,0.6467739939689636,95,,,,,,,,,
0.0001,11479,,,,,,,,,,,
,11479,0.5081156492233276,95,,,,,,,,,
0.0001,11489,,,,,,,,,,,
,11489,0.5330768823623657,95,,,,,,,,,
0.0001,11499,,,,,,,,,,,
,11499,0.5386337041854858,95,,,,,,,,,
0.0001,11509,,,,,,,,,,,
,11509,0.624465823173523,95,,,,,,,,,
0.0001,11519,,,,,,,,,,,
,11519,0.5575812458992004,95,,,,,,,,,
,11519,,95,0.6305980086326599,19.47275161743164,4.7851128578186035,1.9716438055038452,12.715994834899902,,,,
,11519,,95,,,,,,18.558879852294922,5.105681896209717,2.57891845703125,10.874279022216797
0.0001,11529,,,,,,,,,,,
,11529,0.5172441005706787,96,,,,,,,,,
0.0001,11539,,,,,,,,,,,
,11539,0.552849292755127,96,,,,,,,,,
0.0001,11549,,,,,,,,,,,
,11549,0.47643864154815674,96,,,,,,,,,
0.0001,11559,,,,,,,,,,,
,11559,0.6006004810333252,96,,,,,,,,,
0.0001,11569,,,,,,,,,,,
,11569,0.59015953540802,96,,,,,,,,,
0.0001,11579,,,,,,,,,,,
,11579,0.6332843899726868,96,,,,,,,,,
,11579,,96,0.6258032917976379,19.649978637695312,4.918032646179199,1.8830305337905884,12.84891414642334,,,,
0.0001,11589,,,,,,,,,,,
,11589,0.47297829389572144,96,,,,,,,,,
0.0001,11599,,,,,,,,,,,
,11599,0.4789341688156128,96,,,,,,,,,
0.0001,11609,,,,,,,,,,,
,11609,0.6049060821533203,96,,,,,,,,,
0.0001,11619,,,,,,,,,,,
,11619,0.5779993534088135,96,,,,,,,,,
0.0001,11629,,,,,,,,,,,
,11629,0.5182996392250061,96,,,,,,,,,
0.0001,11639,,,,,,,,,,,
,11639,0.5895623564720154,96,,,,,,,,,
,11639,,96,0.6236644387245178,19.251218795776367,5.006646156311035,1.617190957069397,12.627381324768066,,,,
,11639,,96,,,,,,18.32480812072754,4.981301307678223,2.62882924079895,10.714678764343262
0.0001,11649,,,,,,,,,,,
,11649,0.4454631805419922,97,,,,,,,,,
0.0001,11659,,,,,,,,,,,
,11659,0.6057308912277222,97,,,,,,,,,
0.0001,11669,,,,,,,,,,,
,11669,0.49861961603164673,97,,,,,,,,,
0.0001,11679,,,,,,,,,,,
,11679,0.5155313014984131,97,,,,,,,,,
0.0001,11689,,,,,,,,,,,
,11689,0.42975836992263794,97,,,,,,,,,
0.0001,11699,,,,,,,,,,,
,11699,0.5827182531356812,97,,,,,,,,,
,11699,,97,0.626632571220398,19.361984252929688,4.940186023712158,1.9494904279708862,12.472308158874512,,,,
0.0001,11709,,,,,,,,,,,
,11709,0.5184332132339478,97,,,,,,,,,
0.0001,11719,,,,,,,,,,,
,11719,0.5459181666374207,97,,,,,,,,,
0.0001,11729,,,,,,,,,,,
,11729,0.4716397523880005,97,,,,,,,,,
0.0001,11739,,,,,,,,,,,
,11739,0.5936185717582703,97,,,,,,,,,
0.0001,11749,,,,,,,,,,,
,11749,0.5152454376220703,97,,,,,,,,,
0.0001,11759,,,,,,,,,,,
,11759,0.515230119228363,97,,,,,,,,,
,11759,,97,0.6299780607223511,19.384138107299805,4.452813625335693,2.4590163230895996,12.472308158874512,,,,
,11759,,97,,,,,,18.440235137939453,5.087151050567627,2.623492956161499,10.72959041595459
0.0001,11769,,,,,,,,,,,
,11769,0.522442102432251,98,,,,,,,,,
0.0001,11779,,,,,,,,,,,
,11779,0.5827174186706543,98,,,,,,,,,
0.0001,11789,,,,,,,,,,,
,11789,0.48949262499809265,98,,,,,,,,,
0.0001,11799,,,,,,,,,,,
,11799,0.598153829574585,98,,,,,,,,,
0.0001,11809,,,,,,,,,,,
,11809,0.5359032154083252,98,,,,,,,,,
0.0001,11819,,,,,,,,,,,
,11819,0.5549207329750061,98,,,,,,,,,
,11819,,98,0.6283628940582275,19.361984252929688,4.541426658630371,2.4147098064422607,12.405848503112793,,,,
0.0001,11829,,,,,,,,,,,
,11829,0.5015673637390137,98,,,,,,,,,
0.0001,11839,,,,,,,,,,,
,11839,0.5173214673995972,98,,,,,,,,,
0.0001,11849,,,,,,,,,,,
,11849,0.4544634521007538,98,,,,,,,,,
0.0001,11859,,,,,,,,,,,
,11859,0.5176544189453125,98,,,,,,,,,
0.0001,11869,,,,,,,,,,,
,11869,0.45574289560317993,98,,,,,,,,,
0.0001,11879,,,,,,,,,,,
,11879,0.5701968669891357,98,,,,,,,,,
,11879,,98,0.6284515261650085,19.206911087036133,5.250332355499268,1.794417381286621,12.162161827087402,,,,
,11879,,98,,,,,,18.10727310180664,4.977680206298828,2.6976168155670166,10.431975364685059
0.0001,11889,,,,,,,,,,,
,11889,0.49221792817115784,99,,,,,,,,,
0.0001,11899,,,,,,,,,,,
,11899,0.5591221451759338,99,,,,,,,,,
0.0001,11909,,,,,,,,,,,
,11909,0.554450273513794,99,,,,,,,,,
0.0001,11919,,,,,,,,,,,
,11919,0.5136929750442505,99,,,,,,,,,
0.0001,11929,,,,,,,,,,,
,11929,0.45273593068122864,99,,,,,,,,,
0.0001,11939,,,,,,,,,,,
,11939,0.6426321268081665,99,,,,,,,,,
,11939,,99,0.626580536365509,19.58351707458496,5.826318264007568,1.7501107454299927,12.007088661193848,,,,
0.0001,11949,,,,,,,,,,,
,11949,0.4464503526687622,99,,,,,,,,,
0.0001,11959,,,,,,,,,,,
,11959,0.5461472868919373,99,,,,,,,,,
0.0001,11969,,,,,,,,,,,
,11969,0.6321533918380737,99,,,,,,,,,
0.0001,11979,,,,,,,,,,,
,11979,0.4832783639431,99,,,,,,,,,
0.0001,11989,,,,,,,,,,,
,11989,0.501365065574646,99,,,,,,,,,
0.0001,11999,,,,,,,,,,,
,11999,0.5029494762420654,99,,,,,,,,,
,11999,,99,0.6332923173904419,18.80815315246582,4.8294196128845215,1.8830305337905884,12.095702171325684,,,,
,11999,,99,,,,,,17.99021339416504,5.0230889320373535,2.574953556060791,10.392169952392578
0.0001,12009,,,,,,,,,,,
,12009,0.49438387155532837,100,,,,,,,,,
0.0001,12019,,,,,,,,,,,
,12019,0.48008519411087036,100,,,,,,,,,
0.0001,12029,,,,,,,,,,,
,12029,0.4712092876434326,100,,,,,,,,,
0.0001,12039,,,,,,,,,,,
,12039,0.6484830379486084,100,,,,,,,,,
0.0001,12049,,,,,,,,,,,
,12049,0.48814713954925537,100,,,,,,,,,
0.0001,12059,,,,,,,,,,,
,12059,0.5772292613983154,100,,,,,,,,,
,12059,,100,0.6279429793357849,19.140451431274414,4.89587926864624,1.860877275466919,12.383695602416992,,,,
0.0001,12069,,,,,,,,,,,
,12069,0.6024491190910339,100,,,,,,,,,
0.0001,12079,,,,,,,,,,,
,12079,0.4714816212654114,100,,,,,,,,,
0.0001,12089,,,,,,,,,,,
,12089,0.5069138407707214,100,,,,,,,,,
0.0001,12099,,,,,,,,,,,
,12099,0.5314226150512695,100,,,,,,,,,
0.0001,12109,,,,,,,,,,,
,12109,0.5448613166809082,100,,,,,,,,,
0.0001,12119,,,,,,,,,,,
,12119,0.4772535264492035,100,,,,,,,,,
,12119,,100,0.6332995295524597,19.517057418823242,5.671245098114014,1.7279574871063232,12.1178560256958,,,,
,12119,,100,,,,,,17.765748977661133,4.889402866363525,2.6182408332824707,10.258105278015137
0.0001,12129,,,,,,,,,,,
,12129,0.4958065152168274,101,,,,,,,,,
0.0001,12139,,,,,,,,,,,
,12139,0.4610098898410797,101,,,,,,,,,
0.0001,12149,,,,,,,,,,,
,12149,0.5668141841888428,101,,,,,,,,,
0.0001,12159,,,,,,,,,,,
,12159,0.5280399322509766,101,,,,,,,,,
0.0001,12169,,,,,,,,,,,
,12169,0.5423591732978821,101,,,,,,,,,
0.0001,12179,,,,,,,,,,,
,12179,0.5940032005310059,101,,,,,,,,,
,12179,,101,0.6350721120834351,18.830305099487305,5.117412567138672,1.9051839113235474,11.807709693908691,,,,
0.0001,12189,,,,,,,,,,,
,12189,0.5366480350494385,101,,,,,,,,,
0.0001,12199,,,,,,,,,,,
,12199,0.5317192077636719,101,,,,,,,,,
0.0001,12209,,,,,,,,,,,
,12209,0.5613977313041687,101,,,,,,,,,
0.0001,12219,,,,,,,,,,,
,12219,0.43873700499534607,101,,,,,,,,,
0.0001,12229,,,,,,,,,,,
,12229,0.6227229833602905,101,,,,,,,,,
0.0001,12239,,,,,,,,,,,
,12239,0.5156261920928955,101,,,,,,,,,
,12239,,101,0.6431396007537842,19.982276916503906,5.095259189605713,2.0602569580078125,12.826761245727539,,,,
,12239,,101,,,,,,17.985334396362305,4.839930057525635,2.6029412746429443,10.542463302612305
0.0001,12249,,,,,,,,,,,
,12249,0.5667798519134521,102,,,,,,,,,
0.0001,12259,,,,,,,,,,,
,12259,0.4974910616874695,102,,,,,,,,,
0.0001,12269,,,,,,,,,,,
,12269,0.5293009281158447,102,,,,,,,,,
0.0001,12279,,,,,,,,,,,
,12279,0.36985868215560913,102,,,,,,,,,
0.0001,12289,,,,,,,,,,,
,12289,0.5311146378517151,102,,,,,,,,,
0.0001,12299,,,,,,,,,,,
,12299,0.5027506947517395,102,,,,,,,,,
,12299,,102,0.6298363208770752,19.22906494140625,5.073105812072754,1.9273371696472168,12.228622436523438,,,,
0.0001,12309,,,,,,,,,,,
,12309,0.5301164984703064,102,,,,,,,,,
0.0001,12319,,,,,,,,,,,
,12319,0.5380939245223999,102,,,,,,,,,
0.0001,12329,,,,,,,,,,,
,12329,0.5592073202133179,102,,,,,,,,,
0.0001,12339,,,,,,,,,,,
,12339,0.44419190287590027,102,,,,,,,,,
0.0001,12349,,,,,,,,,,,
,12349,0.4720788300037384,102,,,,,,,,,
0.0001,12359,,,,,,,,,,,
,12359,0.5334999561309814,102,,,,,,,,,
,12359,,102,0.6235770583152771,18.1878604888916,4.142667293548584,2.171023368835449,11.87416934967041,,,,
,12359,,102,,,,,,17.456096649169922,4.663915634155273,2.556790828704834,10.235389709472656
0.0001,12369,,,,,,,,,,,
,12369,0.47601163387298584,103,,,,,,,,,
0.0001,12379,,,,,,,,,,,
,12379,0.543516993522644,103,,,,,,,,,
0.0001,12389,,,,,,,,,,,
,12389,0.4601055681705475,103,,,,,,,,,
0.0001,12399,,,,,,,,,,,
,12399,0.5649086236953735,103,,,,,,,,,
0.0001,12409,,,,,,,,,,,
,12409,0.5309898257255554,103,,,,,,,,,
0.0001,12419,,,,,,,,,,,
,12419,0.5419288277626038,103,,,,,,,,,
,12419,,103,0.6233762502670288,18.763845443725586,4.297740459442139,2.237483501434326,12.228622436523438,,,,
0.0001,12429,,,,,,,,,,,
,12429,0.40124189853668213,103,,,,,,,,,
0.0001,12439,,,,,,,,,,,
,12439,0.5907551050186157,103,,,,,,,,,
0.0001,12449,,,,,,,,,,,
,12449,0.5525467395782471,103,,,,,,,,,
0.0001,12459,,,,,,,,,,,
,12459,0.4885926842689514,103,,,,,,,,,
0.0001,12469,,,,,,,,,,,
,12469,0.45858216285705566,103,,,,,,,,,
0.0001,12479,,,,,,,,,,,
,12479,0.4826345145702362,103,,,,,,,,,
,12479,,103,0.6307611465454102,19.16260528564453,4.7851128578186035,2.215330123901367,12.162161827087402,,,,
,12479,,103,,,,,,17.34510040283203,4.900949954986572,2.519899368286133,9.924251556396484
0.0001,12489,,,,,,,,,,,
,12489,0.5931175947189331,104,,,,,,,,,
0.0001,12499,,,,,,,,,,,
,12499,0.5138152837753296,104,,,,,,,,,
0.0001,12509,,,,,,,,,,,
,12509,0.4824488162994385,104,,,,,,,,,
0.0001,12519,,,,,,,,,,,
,12519,0.4062325954437256,104,,,,,,,,,
0.0001,12529,,,,,,,,,,,
,12529,0.5648042559623718,104,,,,,,,,,
0.0001,12539,,,,,,,,,,,
,12539,0.4518519639968872,104,,,,,,,,,
,12539,,104,0.630813717842102,19.251218795776367,4.918032646179199,2.4590163230895996,11.87416934967041,,,,
0.0001,12549,,,,,,,,,,,
,12549,0.48064178228378296,104,,,,,,,,,
0.0001,12559,,,,,,,,,,,
,12559,0.4745102822780609,104,,,,,,,,,
0.0001,12569,,,,,,,,,,,
,12569,0.5578774213790894,104,,,,,,,,,
0.0001,12579,,,,,,,,,,,
,12579,0.5335682034492493,104,,,,,,,,,
0.0001,12589,,,,,,,,,,,
,12589,0.5542590022087097,104,,,,,,,,,
0.0001,12599,,,,,,,,,,,
,12599,0.4424518048763275,104,,,,,,,,,
,12599,,104,0.6246753931045532,18.653079986572266,4.497119903564453,2.0602569580078125,12.095702171325684,,,,
,12599,,104,,,,,,17.148048400878906,4.7261762619018555,2.5138356685638428,9.908037185668945
0.0001,12609,,,,,,,,,,,
,12609,0.5625003576278687,105,,,,,,,,,
0.0001,12619,,,,,,,,,,,
,12619,0.5597376227378845,105,,,,,,,,,
0.0001,12629,,,,,,,,,,,
,12629,0.5136127471923828,105,,,,,,,,,
0.0001,12639,,,,,,,,,,,
,12639,0.44054344296455383,105,,,,,,,,,
0.0001,12649,,,,,,,,,,,
,12649,0.45290854573249817,105,,,,,,,,,
0.0001,12659,,,,,,,,,,,
,12659,0.5272253751754761,105,,,,,,,,,
,12659,,105,0.6419552564620972,19.206911087036133,4.386353492736816,2.237483501434326,12.583074569702148,,,,
0.0001,12669,,,,,,,,,,,
,12669,0.481717586517334,105,,,,,,,,,
0.0001,12679,,,,,,,,,,,
,12679,0.5005046725273132,105,,,,,,,,,
0.0001,12689,,,,,,,,,,,
,12689,0.5562191009521484,105,,,,,,,,,
0.0001,12699,,,,,,,,,,,
,12699,0.6032207608222961,105,,,,,,,,,
0.0001,12709,,,,,,,,,,,
,12709,0.45776790380477905,105,,,,,,,,,
0.0001,12719,,,,,,,,,,,
,12719,0.4630971848964691,105,,,,,,,,,
,12719,,105,0.6391990184783936,19.71643829345703,4.8515729904174805,1.8387240171432495,13.026141166687012,,,,
,12719,,105,,,,,,16.9752197265625,4.730686187744141,2.5426406860351562,9.701892852783203
0.0001,12729,,,,,,,,,,,
,12729,0.5189573764801025,106,,,,,,,,,
0.0001,12739,,,,,,,,,,,
,12739,0.5002530813217163,106,,,,,,,,,
0.0001,12749,,,,,,,,,,,
,12749,0.4948728680610657,106,,,,,,,,,
0.0001,12759,,,,,,,,,,,
,12759,0.5571203231811523,106,,,,,,,,,
0.0001,12769,,,,,,,,,,,
,12769,0.5486850738525391,106,,,,,,,,,
0.0001,12779,,,,,,,,,,,
,12779,0.5059831738471985,106,,,,,,,,,
,12779,,106,0.6340357661247253,19.11829948425293,4.89587926864624,2.215330123901367,12.007088661193848,,,,
0.0001,12789,,,,,,,,,,,
,12789,0.535017728805542,106,,,,,,,,,
0.0001,12799,,,,,,,,,,,
,12799,0.5232335925102234,106,,,,,,,,,
0.0001,12809,,,,,,,,,,,
,12809,0.5004360675811768,106,,,,,,,,,
0.0001,12819,,,,,,,,,,,
,12819,0.3793455958366394,106,,,,,,,,,
0.0001,12829,,,,,,,,,,,
,12829,0.5526624917984009,106,,,,,,,,,
0.0001,12839,,,,,,,,,,,
,12839,0.37364691495895386,106,,,,,,,,,
,12839,,106,0.6224662661552429,18.453699111938477,4.27558708190918,2.1045634746551514,12.073549270629883,,,,
,12839,,106,,,,,,16.94331169128418,4.75212287902832,2.5518362522125244,9.639351844787598
0.0001,12849,,,,,,,,,,,
,12849,0.516526997089386,107,,,,,,,,,
0.0001,12859,,,,,,,,,,,
,12859,0.5176533460617065,107,,,,,,,,,
0.0001,12869,,,,,,,,,,,
,12869,0.5511652827262878,107,,,,,,,,,
0.0001,12879,,,,,,,,,,,
,12879,0.5594890117645264,107,,,,,,,,,
0.0001,12889,,,,,,,,,,,
,12889,0.44313567876815796,107,,,,,,,,,
0.0001,12899,,,,,,,,,,,
,12899,0.3579718768596649,107,,,,,,,,,
,12899,,107,0.6483654379844666,19.694284439086914,5.073105812072754,1.860877275466919,12.76030158996582,,,,
0.0001,12909,,,,,,,,,,,
,12909,0.4662929177284241,107,,,,,,,,,
0.0001,12919,,,,,,,,,,,
,12919,0.49357733130455017,107,,,,,,,,,
0.0001,12929,,,,,,,,,,,
,12929,0.43158936500549316,107,,,,,,,,,
0.0001,12939,,,,,,,,,,,
,12939,0.3800986409187317,107,,,,,,,,,
0.0001,12949,,,,,,,,,,,
,12949,0.5443413257598877,107,,,,,,,,,
0.0001,12959,,,,,,,,,,,
,12959,0.49273455142974854,107,,,,,,,,,
,12959,,107,0.6247908473014832,19.051837921142578,4.984492778778076,1.9494904279708862,12.1178560256958,,,,
,12959,,107,,,,,,16.665979385375977,4.543643474578857,2.5335586071014404,9.588777542114258
0.0001,12969,,,,,,,,,,,
,12969,0.5073919296264648,108,,,,,,,,,
0.0001,12979,,,,,,,,,,,
,12979,0.4621506929397583,108,,,,,,,,,
0.0001,12989,,,,,,,,,,,
,12989,0.5112682580947876,108,,,,,,,,,
0.0001,12999,,,,,,,,,,,
,12999,0.530137300491333,108,,,,,,,,,
0.0001,13009,,,,,,,,,,,
,13009,0.5349385738372803,108,,,,,,,,,
0.0001,13019,,,,,,,,,,,
,13019,0.4727122485637665,108,,,,,,,,,
,13019,,108,0.6436843872070312,19.206911087036133,5.117412567138672,2.0159504413604736,12.073549270629883,,,,
0.0001,13029,,,,,,,,,,,
,13029,0.5317586660385132,108,,,,,,,,,
0.0001,13039,,,,,,,,,,,
,13039,0.4608633518218994,108,,,,,,,,,
0.0001,13049,,,,,,,,,,,
,13049,0.42864102125167847,108,,,,,,,,,
0.0001,13059,,,,,,,,,,,
,13059,0.6257574558258057,108,,,,,,,,,
0.0001,13069,,,,,,,,,,,
,13069,0.5148698687553406,108,,,,,,,,,
0.0001,13079,,,,,,,,,,,
,13079,0.46991464495658875,108,,,,,,,,,
,13079,,108,0.6380501389503479,19.007532119750977,4.652193069458008,2.171023368835449,12.18431568145752,,,,
,13079,,108,,,,,,16.613555908203125,4.528963088989258,2.614189624786377,9.470402717590332
0.0001,13089,,,,,,,,,,,
,13089,0.4420589804649353,109,,,,,,,,,
0.0001,13099,,,,,,,,,,,
,13099,0.44373857975006104,109,,,,,,,,,
0.0001,13109,,,,,,,,,,,
,13109,0.5007224082946777,109,,,,,,,,,
0.0001,13119,,,,,,,,,,,
,13119,0.4880346655845642,109,,,,,,,,,
0.0001,13129,,,,,,,,,,,
,13129,0.4440808892250061,109,,,,,,,,,
0.0001,13139,,,,,,,,,,,
,13139,0.435835599899292,109,,,,,,,,,
,13139,,109,0.6294745206832886,18.342933654785156,4.231280326843262,2.193176746368408,11.918476104736328,,,,
0.0001,13149,,,,,,,,,,,
,13149,0.49956685304641724,109,,,,,,,,,
0.0001,13159,,,,,,,,,,,
,13159,0.5720070004463196,109,,,,,,,,,
0.0001,13169,,,,,,,,,,,
,13169,0.5134936571121216,109,,,,,,,,,
0.0001,13179,,,,,,,,,,,
,13179,0.5058157444000244,109,,,,,,,,,
0.0001,13189,,,,,,,,,,,
,13189,0.5139168500900269,109,,,,,,,,,
0.0001,13199,,,,,,,,,,,
,13199,0.411501407623291,109,,,,,,,,,
,13199,,109,0.6420812606811523,19.18475914001465,4.231280326843262,2.370403289794922,12.583074569702148,,,,
,13199,,109,,,,,,16.49110221862793,4.641530990600586,2.6231138706207275,9.226457595825195
0.0001,13209,,,,,,,,,,,
,13209,0.4591897130012512,110,,,,,,,,,
0.0001,13219,,,,,,,,,,,
,13219,0.4955768585205078,110,,,,,,,,,
0.0001,13229,,,,,,,,,,,
,13229,0.4320560097694397,110,,,,,,,,,
0.0001,13239,,,,,,,,,,,
,13239,0.5347405672073364,110,,,,,,,,,
0.0001,13249,,,,,,,,,,,
,13249,0.5360203981399536,110,,,,,,,,,
0.0001,13259,,,,,,,,,,,
,13259,0.46427178382873535,110,,,,,,,,,
,13259,,110,0.6275516152381897,18.91891860961914,5.095259189605713,1.7279574871063232,12.095702171325684,,,,
0.0001,13269,,,,,,,,,,,
,13269,0.485024094581604,110,,,,,,,,,
0.0001,13279,,,,,,,,,,,
,13279,0.41378480195999146,110,,,,,,,,,
0.0001,13289,,,,,,,,,,,
,13289,0.456399530172348,110,,,,,,,,,
0.0001,13299,,,,,,,,,,,
,13299,0.5591039657592773,110,,,,,,,,,
0.0001,13309,,,,,,,,,,,
,13309,0.452291339635849,110,,,,,,,,,
0.0001,13319,,,,,,,,,,,
,13319,0.4676046669483185,110,,,,,,,,,
,13319,,110,0.6432396769523621,19.29552459716797,4.541426658630371,2.303943395614624,12.450155258178711,,,,
,13319,,110,,,,,,16.316648483276367,4.540404319763184,2.506138563156128,9.270106315612793
0.0001,13329,,,,,,,,,,,
,13329,0.5168228149414062,111,,,,,,,,,
0.0001,13339,,,,,,,,,,,
,13339,0.48247620463371277,111,,,,,,,,,
0.0001,13349,,,,,,,,,,,
,13349,0.4832373559474945,111,,,,,,,,,
0.0001,13359,,,,,,,,,,,
,13359,0.4840334355831146,111,,,,,,,,,
0.0001,13369,,,,,,,,,,,
,13369,0.530674397945404,111,,,,,,,,,
0.0001,13379,,,,,,,,,,,
,13379,0.43358880281448364,111,,,,,,,,,
,13379,,111,0.6667656898498535,19.517057418823242,5.626938343048096,1.794417381286621,12.095702171325684,,,,
0.0001,13389,,,,,,,,,,,
,13389,0.528647780418396,111,,,,,,,,,
0.0001,13399,,,,,,,,,,,
,13399,0.48154282569885254,111,,,,,,,,,
0.0001,13409,,,,,,,,,,,
,13409,0.5087596774101257,111,,,,,,,,,
0.0001,13419,,,,,,,,,,,
,13419,0.4100548028945923,111,,,,,,,,,
0.0001,13429,,,,,,,,,,,
,13429,0.4127653241157532,111,,,,,,,,,
0.0001,13439,,,,,,,,,,,
,13439,0.4321522116661072,111,,,,,,,,,
,13439,,111,0.6439187526702881,19.339832305908203,5.250332355499268,1.7722641229629517,12.317234992980957,,,,
,13439,,111,,,,,,16.173458099365234,4.513779163360596,2.531784772872925,9.12789535522461
0.0001,13449,,,,,,,,,,,
,13449,0.43740299344062805,112,,,,,,,,,
0.0001,13459,,,,,,,,,,,
,13459,0.46932369470596313,112,,,,,,,,,
0.0001,13469,,,,,,,,,,,
,13469,0.4556581676006317,112,,,,,,,,,
0.0001,13479,,,,,,,,,,,
,13479,0.4289163053035736,112,,,,,,,,,
0.0001,13489,,,,,,,,,,,
,13489,0.5572140216827393,112,,,,,,,,,
0.0001,13499,,,,,,,,,,,
,13499,0.4241331219673157,112,,,,,,,,,
,13499,,112,0.635698139667511,19.206911087036133,4.740806579589844,1.9273371696472168,12.53876781463623,,,,
0.0001,13509,,,,,,,,,,,
,13509,0.4317094087600708,112,,,,,,,,,
0.0001,13519,,,,,,,,,,,
,13519,0.5057511329650879,112,,,,,,,,,
0.0001,13529,,,,,,,,,,,
,13529,0.4364239573478699,112,,,,,,,,,
0.0001,13539,,,,,,,,,,,
,13539,0.46022963523864746,112,,,,,,,,,
0.0001,13549,,,,,,,,,,,
,13549,0.4590972661972046,112,,,,,,,,,
0.0001,13559,,,,,,,,,,,
,13559,0.44051283597946167,112,,,,,,,,,
,13559,,112,0.6417295932769775,19.384138107299805,4.918032646179199,1.7722641229629517,12.693840980529785,,,,
,13559,,112,,,,,,15.924771308898926,4.525886058807373,2.516834020614624,8.882051467895508
0.0001,13569,,,,,,,,,,,
,13569,0.48206084966659546,113,,,,,,,,,
0.0001,13579,,,,,,,,,,,
,13579,0.47987377643585205,113,,,,,,,,,
0.0001,13589,,,,,,,,,,,
,13589,0.3959147036075592,113,,,,,,,,,
0.0001,13599,,,,,,,,,,,
,13599,0.41471046209335327,113,,,,,,,,,
0.0001,13609,,,,,,,,,,,
,13609,0.4121215343475342,113,,,,,,,,,
0.0001,13619,,,,,,,,,,,
,13619,0.49734240770339966,113,,,,,,,,,
,13619,,113,0.6512115001678467,19.273372650146484,4.940186023712158,2.1045634746551514,12.228622436523438,,,,
0.0001,13629,,,,,,,,,,,
,13629,0.5023080110549927,113,,,,,,,,,
0.0001,13639,,,,,,,,,,,
,13639,0.3809913396835327,113,,,,,,,,,
0.0001,13649,,,,,,,,,,,
,13649,0.4517019987106323,113,,,,,,,,,
0.0001,13659,,,,,,,,,,,
,13659,0.4851280152797699,113,,,,,,,,,
0.0001,13669,,,,,,,,,,,
,13669,0.43181514739990234,113,,,,,,,,,
0.0001,13679,,,,,,,,,,,
,13679,0.5324939489364624,113,,,,,,,,,
,13679,,113,0.6429027915000916,19.494905471801758,4.984492778778076,2.171023368835449,12.339388847351074,,,,
,13679,,113,,,,,,15.84211540222168,4.383237361907959,2.5107998847961426,8.948078155517578
1e-05,13689,,,,,,,,,,,
,13689,0.42019256949424744,114,,,,,,,,,
1e-05,13699,,,,,,,,,,,
,13699,0.4391327202320099,114,,,,,,,,,
1e-05,13709,,,,,,,,,,,
,13709,0.5042885541915894,114,,,,,,,,,
1e-05,13719,,,,,,,,,,,
,13719,0.4076967239379883,114,,,,,,,,,
1e-05,13729,,,,,,,,,,,
,13729,0.4648904502391815,114,,,,,,,,,
1e-05,13739,,,,,,,,,,,
,13739,0.4016852378845215,114,,,,,,,,,
,13739,,114,0.6337516903877258,18.697385787963867,4.940186023712158,1.9494904279708862,11.807709693908691,,,,
1e-05,13749,,,,,,,,,,,
,13749,0.4554091691970825,114,,,,,,,,,
1e-05,13759,,,,,,,,,,,
,13759,0.3576618432998657,114,,,,,,,,,
1e-05,13769,,,,,,,,,,,
,13769,0.4727296233177185,114,,,,,,,,,
1e-05,13779,,,,,,,,,,,
,13779,0.42519611120224,114,,,,,,,,,
1e-05,13789,,,,,,,,,,,
,13789,0.41895395517349243,114,,,,,,,,,
1e-05,13799,,,,,,,,,,,
,13799,0.4575018882751465,114,,,,,,,,,
,13799,,114,0.6314053535461426,18.63092613220215,4.7629594802856445,1.860877275466919,12.007088661193848,,,,
,13799,,114,,,,,,15.272041320800781,4.2472052574157715,2.3927528858184814,8.63208293914795
1e-05,13809,,,,,,,,,,,
,13809,0.41575172543525696,115,,,,,,,,,
1e-05,13819,,,,,,,,,,,
,13819,0.4339291453361511,115,,,,,,,,,
1e-05,13829,,,,,,,,,,,
,13829,0.43728867173194885,115,,,,,,,,,
1e-05,13839,,,,,,,,,,,
,13839,0.4688795208930969,115,,,,,,,,,
1e-05,13849,,,,,,,,,,,
,13849,0.4265166223049164,115,,,,,,,,,
1e-05,13859,,,,,,,,,,,
,13859,0.4866906702518463,115,,,,,,,,,
,13859,,115,0.6319454908370972,18.785999298095703,4.962339401245117,1.794417381286621,12.029242515563965,,,,
1e-05,13869,,,,,,,,,,,
,13869,0.44463855028152466,115,,,,,,,,,
1e-05,13879,,,,,,,,,,,
,13879,0.455355167388916,115,,,,,,,,,
1e-05,13889,,,,,,,,,,,
,13889,0.39236146211624146,115,,,,,,,,,
1e-05,13899,,,,,,,,,,,
,13899,0.5087796449661255,115,,,,,,,,,
1e-05,13909,,,,,,,,,,,
,13909,0.35417723655700684,115,,,,,,,,,
1e-05,13919,,,,,,,,,,,
,13919,0.44379448890686035,115,,,,,,,,,
,13919,,115,0.6285429000854492,18.963226318359375,4.718653202056885,2.0381035804748535,12.20646858215332,,,,
,13919,,115,,,,,,15.009434700012207,4.188647747039795,2.4063029289245605,8.414484977722168
1e-05,13929,,,,,,,,,,,
,13929,0.45513415336608887,116,,,,,,,,,
1e-05,13939,,,,,,,,,,,
,13939,0.4360293447971344,116,,,,,,,,,
1e-05,13949,,,,,,,,,,,
,13949,0.38143008947372437,116,,,,,,,,,
1e-05,13959,,,,,,,,,,,
,13959,0.3798830509185791,116,,,,,,,,,
1e-05,13969,,,,,,,,,,,
,13969,0.42903438210487366,116,,,,,,,,,
1e-05,13979,,,,,,,,,,,
,13979,0.37641626596450806,116,,,,,,,,,
,13979,,116,0.6267900466918945,18.74169158935547,4.541426658630371,1.8165706396102905,12.383695602416992,,,,
1e-05,13989,,,,,,,,,,,
,13989,0.41561204195022583,116,,,,,,,,,
1e-05,13999,,,,,,,,,,,
,13999,0.3652370572090149,116,,,,,,,,,
1e-05,14009,,,,,,,,,,,
,14009,0.41999882459640503,116,,,,,,,,,
1e-05,14019,,,,,,,,,,,
,14019,0.453253835439682,116,,,,,,,,,
1e-05,14029,,,,,,,,,,,
,14029,0.4367225170135498,116,,,,,,,,,
1e-05,14039,,,,,,,,,,,
,14039,0.4594326615333557,116,,,,,,,,,
,14039,,116,0.6246050596237183,18.80815315246582,4.696499824523926,1.8165706396102905,12.295082092285156,,,,
,14039,,116,,,,,,14.842698097229004,4.1997528076171875,2.411045551300049,8.231900215148926
1e-05,14049,,,,,,,,,,,
,14049,0.3971204161643982,117,,,,,,,,,
1e-05,14059,,,,,,,,,,,
,14059,0.46326953172683716,117,,,,,,,,,
1e-05,14069,,,,,,,,,,,
,14069,0.369042307138443,117,,,,,,,,,
1e-05,14079,,,,,,,,,,,
,14079,0.4097871780395508,117,,,,,,,,,
1e-05,14089,,,,,,,,,,,
,14089,0.5196660161018372,117,,,,,,,,,
1e-05,14099,,,,,,,,,,,
,14099,0.4225069284439087,117,,,,,,,,,
,14099,,117,0.630301296710968,18.963226318359375,4.984492778778076,1.794417381286621,12.18431568145752,,,,
1e-05,14109,,,,,,,,,,,
,14109,0.33997026085853577,117,,,,,,,,,
1e-05,14119,,,,,,,,,,,
,14119,0.405293345451355,117,,,,,,,,,
1e-05,14129,,,,,,,,,,,
,14129,0.4707199037075043,117,,,,,,,,,
1e-05,14139,,,,,,,,,,,
,14139,0.4897492229938507,117,,,,,,,,,
1e-05,14149,,,,,,,,,,,
,14149,0.38547903299331665,117,,,,,,,,,
1e-05,14159,,,,,,,,,,,
,14159,0.3723376989364624,117,,,,,,,,,
,14159,,117,0.6233130693435669,18.36508560180664,4.630039691925049,1.7501107454299927,11.984935760498047,,,,
,14159,,117,,,,,,14.539109230041504,4.108102321624756,2.275256633758545,8.155750274658203
1e-05,14169,,,,,,,,,,,
,14169,0.4304562211036682,118,,,,,,,,,
1e-05,14179,,,,,,,,,,,
,14179,0.3827807605266571,118,,,,,,,,,
1e-05,14189,,,,,,,,,,,
,14189,0.39303624629974365,118,,,,,,,,,
1e-05,14199,,,,,,,,,,,
,14199,0.42548924684524536,118,,,,,,,,,
1e-05,14209,,,,,,,,,,,
